# Pulseq sequence file
# Created by MATLAB mr toolbox

# Created for Pulseq-CEST
# https://pulseq-cest.github.io/
# Created by: JRS
# Created at: 12-Jul-2023 16:35:32

[VERSION]
major 1
minor 3
revision 1

[DEFINITIONS]
B0 2.89500052 
B1pa 1.78 
B1rms 1.8 
DCsat 0.909090909 
FREQ 123.2587 
M0_offset -300 
Trec 3.5 
Trec_M0 3.5 
Tsat 1.975 
n_pulses 36 
num_meas 162 
offsets_ppm -300 -4 -3.95 -3.9 -3.85 -3.8 -3.75 -3.7 -3.65 -3.6 -3.55 -3.5 -3.45 -3.4 -3.35 -3.3 -3.25 -3.2 -3.15 -3.1 -3.05 -3 -2.95 -2.9 -2.85 -2.8 -2.75 -2.7 -2.65 -2.6 -2.55 -2.5 -2.45 -2.4 -2.35 -2.3 -2.25 -2.2 -2.15 -2.1 -2.05 -2 -1.95 -1.9 -1.85 -1.8 -1.75 -1.7 -1.65 -1.6 -1.55 -1.5 -1.45 -1.4 -1.35 -1.3 -1.25 -1.2 -1.15 -1.1 -1.05 -1 -0.95 -0.9 -0.85 -0.8 -0.75 -0.7 -0.65 -0.6 -0.55 -0.5 -0.45 -0.4 -0.35 -0.3 -0.25 -0.2 -0.15 -0.1 -0.05 0 0.05 0.1 0.15 0.2 0.25 0.3 0.35 0.4 0.45 0.5 0.55 0.6 0.65 0.7 0.75 0.8 0.85 0.9 0.95 1 1.05 1.1 1.15 1.2 1.25 1.3 1.35 1.4 1.45 1.5 1.55 1.6 1.65 1.7 1.75 1.8 1.85 1.9 1.95 2 2.05 2.1 2.15 2.2 2.25 2.3 2.35 2.4 2.45 2.5 2.55 2.6 2.65 2.7 2.75 2.8 2.85 2.9 2.95 3 3.05 3.1 3.15 3.2 3.25 3.3 3.35 3.4 3.45 3.5 3.55 3.6 3.65 3.7 3.75 3.8 3.85 3.9 3.95 4 
seq_id_string  
spoiling 1 
td 0.005 
tp 0.05 

# Format of blocks:
#  #  D RF  GX  GY  GZ ADC EXT
[BLOCKS]
    1  1  0   0   0   0  0  0
    2  0  1   0   0   0  0  0
    3  2  0   0   0   0  0  0
    4  0  2   0   0   0  0  0
    5  2  0   0   0   0  0  0
    6  0  3   0   0   0  0  0
    7  2  0   0   0   0  0  0
    8  0  4   0   0   0  0  0
    9  2  0   0   0   0  0  0
   10  0  5   0   0   0  0  0
   11  2  0   0   0   0  0  0
   12  0  6   0   0   0  0  0
   13  2  0   0   0   0  0  0
   14  0  7   0   0   0  0  0
   15  2  0   0   0   0  0  0
   16  0  8   0   0   0  0  0
   17  2  0   0   0   0  0  0
   18  0  9   0   0   0  0  0
   19  2  0   0   0   0  0  0
   20  0 10   0   0   0  0  0
   21  2  0   0   0   0  0  0
   22  0 11   0   0   0  0  0
   23  2  0   0   0   0  0  0
   24  0 12   0   0   0  0  0
   25  2  0   0   0   0  0  0
   26  0 13   0   0   0  0  0
   27  2  0   0   0   0  0  0
   28  0 14   0   0   0  0  0
   29  2  0   0   0   0  0  0
   30  0 15   0   0   0  0  0
   31  2  0   0   0   0  0  0
   32  0 16   0   0   0  0  0
   33  2  0   0   0   0  0  0
   34  0 17   0   0   0  0  0
   35  2  0   0   0   0  0  0
   36  0 18   0   0   0  0  0
   37  2  0   0   0   0  0  0
   38  0 19   0   0   0  0  0
   39  2  0   0   0   0  0  0
   40  0 20   0   0   0  0  0
   41  2  0   0   0   0  0  0
   42  0 21   0   0   0  0  0
   43  2  0   0   0   0  0  0
   44  0 22   0   0   0  0  0
   45  2  0   0   0   0  0  0
   46  0 23   0   0   0  0  0
   47  2  0   0   0   0  0  0
   48  0 24   0   0   0  0  0
   49  2  0   0   0   0  0  0
   50  0 25   0   0   0  0  0
   51  2  0   0   0   0  0  0
   52  0 26   0   0   0  0  0
   53  2  0   0   0   0  0  0
   54  0 27   0   0   0  0  0
   55  2  0   0   0   0  0  0
   56  0 28   0   0   0  0  0
   57  2  0   0   0   0  0  0
   58  0 29   0   0   0  0  0
   59  2  0   0   0   0  0  0
   60  0 30   0   0   0  0  0
   61  2  0   0   0   0  0  0
   62  0 31   0   0   0  0  0
   63  2  0   0   0   0  0  0
   64  0 32   0   0   0  0  0
   65  2  0   0   0   0  0  0
   66  0 33   0   0   0  0  0
   67  2  0   0   0   0  0  0
   68  0 34   0   0   0  0  0
   69  2  0   0   0   0  0  0
   70  0 35   0   0   0  0  0
   71  2  0   0   0   0  0  0
   72  0 36   0   0   0  0  0
   73  0  0   1   1   1  0  0
   74  0  0   0   0   0  1  0
   75  1  0   0   0   0  0  0
   76  0 37   0   0   0  0  0
   77  2  0   0   0   0  0  0
   78  0 38   0   0   0  0  0
   79  2  0   0   0   0  0  0
   80  0 39   0   0   0  0  0
   81  2  0   0   0   0  0  0
   82  0 40   0   0   0  0  0
   83  2  0   0   0   0  0  0
   84  0 41   0   0   0  0  0
   85  2  0   0   0   0  0  0
   86  0 42   0   0   0  0  0
   87  2  0   0   0   0  0  0
   88  0 43   0   0   0  0  0
   89  2  0   0   0   0  0  0
   90  0 44   0   0   0  0  0
   91  2  0   0   0   0  0  0
   92  0 45   0   0   0  0  0
   93  2  0   0   0   0  0  0
   94  0 46   0   0   0  0  0
   95  2  0   0   0   0  0  0
   96  0 47   0   0   0  0  0
   97  2  0   0   0   0  0  0
   98  0 48   0   0   0  0  0
   99  2  0   0   0   0  0  0
  100  0 49   0   0   0  0  0
  101  2  0   0   0   0  0  0
  102  0 50   0   0   0  0  0
  103  2  0   0   0   0  0  0
  104  0 51   0   0   0  0  0
  105  2  0   0   0   0  0  0
  106  0 52   0   0   0  0  0
  107  2  0   0   0   0  0  0
  108  0 53   0   0   0  0  0
  109  2  0   0   0   0  0  0
  110  0 54   0   0   0  0  0
  111  2  0   0   0   0  0  0
  112  0 55   0   0   0  0  0
  113  2  0   0   0   0  0  0
  114  0 56   0   0   0  0  0
  115  2  0   0   0   0  0  0
  116  0 57   0   0   0  0  0
  117  2  0   0   0   0  0  0
  118  0 58   0   0   0  0  0
  119  2  0   0   0   0  0  0
  120  0 59   0   0   0  0  0
  121  2  0   0   0   0  0  0
  122  0 60   0   0   0  0  0
  123  2  0   0   0   0  0  0
  124  0 61   0   0   0  0  0
  125  2  0   0   0   0  0  0
  126  0 62   0   0   0  0  0
  127  2  0   0   0   0  0  0
  128  0 63   0   0   0  0  0
  129  2  0   0   0   0  0  0
  130  0 64   0   0   0  0  0
  131  2  0   0   0   0  0  0
  132  0 65   0   0   0  0  0
  133  2  0   0   0   0  0  0
  134  0 66   0   0   0  0  0
  135  2  0   0   0   0  0  0
  136  0 67   0   0   0  0  0
  137  2  0   0   0   0  0  0
  138  0 68   0   0   0  0  0
  139  2  0   0   0   0  0  0
  140  0 69   0   0   0  0  0
  141  2  0   0   0   0  0  0
  142  0 70   0   0   0  0  0
  143  2  0   0   0   0  0  0
  144  0 71   0   0   0  0  0
  145  2  0   0   0   0  0  0
  146  0 72   0   0   0  0  0
  147  0  0   1   1   1  0  0
  148  0  0   0   0   0  1  0
  149  1  0   0   0   0  0  0
  150  0 73   0   0   0  0  0
  151  2  0   0   0   0  0  0
  152  0 74   0   0   0  0  0
  153  2  0   0   0   0  0  0
  154  0 75   0   0   0  0  0
  155  2  0   0   0   0  0  0
  156  0 76   0   0   0  0  0
  157  2  0   0   0   0  0  0
  158  0 77   0   0   0  0  0
  159  2  0   0   0   0  0  0
  160  0 78   0   0   0  0  0
  161  2  0   0   0   0  0  0
  162  0 79   0   0   0  0  0
  163  2  0   0   0   0  0  0
  164  0 80   0   0   0  0  0
  165  2  0   0   0   0  0  0
  166  0 81   0   0   0  0  0
  167  2  0   0   0   0  0  0
  168  0 82   0   0   0  0  0
  169  2  0   0   0   0  0  0
  170  0 83   0   0   0  0  0
  171  2  0   0   0   0  0  0
  172  0 84   0   0   0  0  0
  173  2  0   0   0   0  0  0
  174  0 85   0   0   0  0  0
  175  2  0   0   0   0  0  0
  176  0 86   0   0   0  0  0
  177  2  0   0   0   0  0  0
  178  0 87   0   0   0  0  0
  179  2  0   0   0   0  0  0
  180  0 88   0   0   0  0  0
  181  2  0   0   0   0  0  0
  182  0 89   0   0   0  0  0
  183  2  0   0   0   0  0  0
  184  0 90   0   0   0  0  0
  185  2  0   0   0   0  0  0
  186  0 91   0   0   0  0  0
  187  2  0   0   0   0  0  0
  188  0 92   0   0   0  0  0
  189  2  0   0   0   0  0  0
  190  0 93   0   0   0  0  0
  191  2  0   0   0   0  0  0
  192  0 94   0   0   0  0  0
  193  2  0   0   0   0  0  0
  194  0 95   0   0   0  0  0
  195  2  0   0   0   0  0  0
  196  0 96   0   0   0  0  0
  197  2  0   0   0   0  0  0
  198  0 97   0   0   0  0  0
  199  2  0   0   0   0  0  0
  200  0 98   0   0   0  0  0
  201  2  0   0   0   0  0  0
  202  0 99   0   0   0  0  0
  203  2  0   0   0   0  0  0
  204  0 100   0   0   0  0  0
  205  2  0   0   0   0  0  0
  206  0 101   0   0   0  0  0
  207  2  0   0   0   0  0  0
  208  0 102   0   0   0  0  0
  209  2  0   0   0   0  0  0
  210  0 103   0   0   0  0  0
  211  2  0   0   0   0  0  0
  212  0 104   0   0   0  0  0
  213  2  0   0   0   0  0  0
  214  0 105   0   0   0  0  0
  215  2  0   0   0   0  0  0
  216  0 106   0   0   0  0  0
  217  2  0   0   0   0  0  0
  218  0 107   0   0   0  0  0
  219  2  0   0   0   0  0  0
  220  0 108   0   0   0  0  0
  221  0  0   1   1   1  0  0
  222  0  0   0   0   0  1  0
  223  1  0   0   0   0  0  0
  224  0 109   0   0   0  0  0
  225  2  0   0   0   0  0  0
  226  0 110   0   0   0  0  0
  227  2  0   0   0   0  0  0
  228  0 111   0   0   0  0  0
  229  2  0   0   0   0  0  0
  230  0 112   0   0   0  0  0
  231  2  0   0   0   0  0  0
  232  0 113   0   0   0  0  0
  233  2  0   0   0   0  0  0
  234  0 114   0   0   0  0  0
  235  2  0   0   0   0  0  0
  236  0 115   0   0   0  0  0
  237  2  0   0   0   0  0  0
  238  0 116   0   0   0  0  0
  239  2  0   0   0   0  0  0
  240  0 117   0   0   0  0  0
  241  2  0   0   0   0  0  0
  242  0 118   0   0   0  0  0
  243  2  0   0   0   0  0  0
  244  0 119   0   0   0  0  0
  245  2  0   0   0   0  0  0
  246  0 120   0   0   0  0  0
  247  2  0   0   0   0  0  0
  248  0 121   0   0   0  0  0
  249  2  0   0   0   0  0  0
  250  0 122   0   0   0  0  0
  251  2  0   0   0   0  0  0
  252  0 123   0   0   0  0  0
  253  2  0   0   0   0  0  0
  254  0 124   0   0   0  0  0
  255  2  0   0   0   0  0  0
  256  0 125   0   0   0  0  0
  257  2  0   0   0   0  0  0
  258  0 126   0   0   0  0  0
  259  2  0   0   0   0  0  0
  260  0 127   0   0   0  0  0
  261  2  0   0   0   0  0  0
  262  0 128   0   0   0  0  0
  263  2  0   0   0   0  0  0
  264  0 129   0   0   0  0  0
  265  2  0   0   0   0  0  0
  266  0 130   0   0   0  0  0
  267  2  0   0   0   0  0  0
  268  0 131   0   0   0  0  0
  269  2  0   0   0   0  0  0
  270  0 132   0   0   0  0  0
  271  2  0   0   0   0  0  0
  272  0 133   0   0   0  0  0
  273  2  0   0   0   0  0  0
  274  0 134   0   0   0  0  0
  275  2  0   0   0   0  0  0
  276  0 135   0   0   0  0  0
  277  2  0   0   0   0  0  0
  278  0 136   0   0   0  0  0
  279  2  0   0   0   0  0  0
  280  0 137   0   0   0  0  0
  281  2  0   0   0   0  0  0
  282  0 138   0   0   0  0  0
  283  2  0   0   0   0  0  0
  284  0 139   0   0   0  0  0
  285  2  0   0   0   0  0  0
  286  0 140   0   0   0  0  0
  287  2  0   0   0   0  0  0
  288  0 141   0   0   0  0  0
  289  2  0   0   0   0  0  0
[RF]
1      131.586 1 2 100 -36977.6 0
2      131.586 1 2 100 -36977.6 0.983178
3      131.586 1 2 100 -36977.6 1.96636
4      131.586 1 2 100 -36977.6 2.94953
5      131.586 1 2 100 -36977.6 3.93271
6      131.586 1 2 100 -36977.6 4.91589
7      131.586 1 2 100 -36977.6 5.89907
8      131.586 1 2 100 -36977.6 0.599059
9      131.586 1 2 100 -36977.6 1.58224
10      131.586 1 2 100 -36977.6 2.56542
11      131.586 1 2 100 -36977.6 3.54859
12      131.586 1 2 100 -36977.6 4.53177
13      131.586 1 2 100 -36977.6 5.51495
14      131.586 1 2 100 -36977.6 0.214941
15      131.586 1 2 100 -36977.6 1.19812
16      131.586 1 2 100 -36977.6 2.1813
17      131.586 1 2 100 -36977.6 3.16447
18      131.586 1 2 100 -36977.6 4.14765
19      131.586 1 2 100 -36977.6 5.13083
20      131.586 1 2 100 -36977.6 6.11401
21      131.586 1 2 100 -36977.6 0.814
22      131.586 1 2 100 -36977.6 1.79718
23      131.586 1 2 100 -36977.6 2.78036
24      131.586 1 2 100 -36977.6 3.76353
25      131.586 1 2 100 -36977.6 4.74671
26      131.586 1 2 100 -36977.6 5.72989
27      131.586 1 2 100 -36977.6 0.429882
28      131.586 1 2 100 -36977.6 1.41306
29      131.586 1 2 100 -36977.6 2.39624
30      131.586 1 2 100 -36977.6 3.37942
31      131.586 1 2 100 -36977.6 4.36259
32      131.586 1 2 100 -36977.6 5.34577
33      131.586 1 2 100 -36977.6 0.0457637
34      131.586 1 2 100 -36977.6 1.02894
35      131.586 1 2 100 -36977.6 2.01212
36      131.586 1 2 100 -36977.6 2.9953
37      131.586 1 2 100 -493.035 0
38      131.586 1 2 100 -493.035 2.19128
39      131.586 1 2 100 -493.035 4.38256
40      131.586 1 2 100 -493.035 0.290655
41      131.586 1 2 100 -493.035 2.48193
42      131.586 1 2 100 -493.035 4.67321
43      131.586 1 2 100 -493.035 0.581309
44      131.586 1 2 100 -493.035 2.77259
45      131.586 1 2 100 -493.035 4.96387
46      131.586 1 2 100 -493.035 0.871964
47      131.586 1 2 100 -493.035 3.06324
48      131.586 1 2 100 -493.035 5.25452
49      131.586 1 2 100 -493.035 1.16262
50      131.586 1 2 100 -493.035 3.3539
51      131.586 1 2 100 -493.035 5.54518
52      131.586 1 2 100 -493.035 1.45327
53      131.586 1 2 100 -493.035 3.64455
54      131.586 1 2 100 -493.035 5.83583
55      131.586 1 2 100 -493.035 1.74393
56      131.586 1 2 100 -493.035 3.93521
57      131.586 1 2 100 -493.035 6.12649
58      131.586 1 2 100 -493.035 2.03458
59      131.586 1 2 100 -493.035 4.22586
60      131.586 1 2 100 -493.035 0.133956
61      131.586 1 2 100 -493.035 2.32524
62      131.586 1 2 100 -493.035 4.51652
63      131.586 1 2 100 -493.035 0.424611
64      131.586 1 2 100 -493.035 2.61589
65      131.586 1 2 100 -493.035 4.80717
66      131.586 1 2 100 -493.035 0.715265
67      131.586 1 2 100 -493.035 2.90655
68      131.586 1 2 100 -493.035 5.09783
69      131.586 1 2 100 -493.035 1.00592
70      131.586 1 2 100 -493.035 3.1972
71      131.586 1 2 100 -493.035 5.38848
72      131.586 1 2 100 -493.035 1.29657
73      131.586 1 2 100 -486.872 0
74      131.586 1 2 100 -486.872 4.12738
75      131.586 1 2 100 -486.872 1.97158
76      131.586 1 2 100 -486.872 6.09897
77      131.586 1 2 100 -486.872 3.94317
78      131.586 1 2 100 -486.872 1.78737
79      131.586 1 2 100 -486.872 5.91475
80      131.586 1 2 100 -486.872 3.75895
81      131.586 1 2 100 -486.872 1.60315
82      131.586 1 2 100 -486.872 5.73053
83      131.586 1 2 100 -486.872 3.57473
84      131.586 1 2 100 -486.872 1.41893
85      131.586 1 2 100 -486.872 5.54632
86      131.586 1 2 100 -486.872 3.39051
87      131.586 1 2 100 -486.872 1.23471
88      131.586 1 2 100 -486.872 5.3621
89      131.586 1 2 100 -486.872 3.2063
90      131.586 1 2 100 -486.872 1.0505
91      131.586 1 2 100 -486.872 5.17788
92      131.586 1 2 100 -486.872 3.02208
93      131.586 1 2 100 -486.872 0.866278
94      131.586 1 2 100 -486.872 4.99366
95      131.586 1 2 100 -486.872 2.83786
96      131.586 1 2 100 -486.872 0.682061
97      131.586 1 2 100 -486.872 4.80944
98      131.586 1 2 100 -486.872 2.65364
99      131.586 1 2 100 -486.872 0.497843
100      131.586 1 2 100 -486.872 4.62523
101      131.586 1 2 100 -486.872 2.46943
102      131.586 1 2 100 -486.872 0.313625
103      131.586 1 2 100 -486.872 4.44101
104      131.586 1 2 100 -486.872 2.28521
105      131.586 1 2 100 -486.872 0.129408
106      131.586 1 2 100 -486.872 4.25679
107      131.586 1 2 100 -486.872 2.10099
108      131.586 1 2 100 -486.872 6.22838
109      131.586 1 2 100 -480.709 0
110      131.586 1 2 100 -480.709 6.06349
111      131.586 1 2 100 -480.709 5.84379
112      131.586 1 2 100 -480.709 5.6241
113      131.586 1 2 100 -480.709 5.4044
114      131.586 1 2 100 -480.709 5.1847
115      131.586 1 2 100 -480.709 4.96501
116      131.586 1 2 100 -480.709 4.74531
117      131.586 1 2 100 -480.709 4.52561
118      131.586 1 2 100 -480.709 4.30592
119      131.586 1 2 100 -480.709 4.08622
120      131.586 1 2 100 -480.709 3.86652
121      131.586 1 2 100 -480.709 3.64683
122      131.586 1 2 100 -480.709 3.42713
123      131.586 1 2 100 -480.709 3.20743
124      131.586 1 2 100 -480.709 2.98774
125      131.586 1 2 100 -480.709 2.76804
126      131.586 1 2 100 -480.709 2.54834
127      131.586 1 2 100 -480.709 2.32865
128      131.586 1 2 100 -480.709 2.10895
129      131.586 1 2 100 -480.709 1.88925
130      131.586 1 2 100 -480.709 1.66956
131      131.586 1 2 100 -480.709 1.44986
132      131.586 1 2 100 -480.709 1.23016
133      131.586 1 2 100 -480.709 1.01047
134      131.586 1 2 100 -480.709 0.790772
135      131.586 1 2 100 -480.709 0.571075
136      131.586 1 2 100 -480.709 0.351379
137      131.586 1 2 100 -480.709 0.131682
138      131.586 1 2 100 -480.709 6.19517
139      131.586 1 2 100 -480.709 5.97547
140      131.586 1 2 100 -480.709 5.75578
141      131.586 1 2 100 -480.709 5.53608
142      131.586 1 2 100 -480.709 5.31638
143      131.586 1 2 100 -480.709 5.09669
144      131.586 1 2 100 -480.709 4.87699
145      131.586 1 2 100 -474.546 0
146      131.586 1 2 100 -474.546 1.71641
147      131.586 1 2 100 -474.546 3.43282
148      131.586 1 2 100 -474.546 5.14922
149      131.586 1 2 100 -474.546 0.582446
150      131.586 1 2 100 -474.546 2.29885
151      131.586 1 2 100 -474.546 4.01526
152      131.586 1 2 100 -474.546 5.73167
153      131.586 1 2 100 -474.546 1.16489
154      131.586 1 2 100 -474.546 2.8813
155      131.586 1 2 100 -474.546 4.59771
156      131.586 1 2 100 -474.546 0.0309306
157      131.586 1 2 100 -474.546 1.74734
158      131.586 1 2 100 -474.546 3.46375
159      131.586 1 2 100 -474.546 5.18015
160      131.586 1 2 100 -474.546 0.613377
161      131.586 1 2 100 -474.546 2.32978
162      131.586 1 2 100 -474.546 4.04619
163      131.586 1 2 100 -474.546 5.7626
164      131.586 1 2 100 -474.546 1.19582
165      131.586 1 2 100 -474.546 2.91223
166      131.586 1 2 100 -474.546 4.62864
167      131.586 1 2 100 -474.546 0.0618612
168      131.586 1 2 100 -474.546 1.77827
169      131.586 1 2 100 -474.546 3.49468
170      131.586 1 2 100 -474.546 5.21108
171      131.586 1 2 100 -474.546 0.644307
172      131.586 1 2 100 -474.546 2.36072
173      131.586 1 2 100 -474.546 4.07712
174      131.586 1 2 100 -474.546 5.79353
175      131.586 1 2 100 -474.546 1.22675
176      131.586 1 2 100 -474.546 2.94316
177      131.586 1 2 100 -474.546 4.65957
178      131.586 1 2 100 -474.546 0.0927918
179      131.586 1 2 100 -474.546 1.8092
180      131.586 1 2 100 -474.546 3.52561
181      131.586 1 2 100 -468.383 0
182      131.586 1 2 100 -468.383 3.65251
183      131.586 1 2 100 -468.383 1.02184
184      131.586 1 2 100 -468.383 4.67435
185      131.586 1 2 100 -468.383 2.04368
186      131.586 1 2 100 -468.383 5.69619
187      131.586 1 2 100 -468.383 3.06552
188      131.586 1 2 100 -468.383 0.434845
189      131.586 1 2 100 -468.383 4.08736
190      131.586 1 2 100 -468.383 1.45668
191      131.586 1 2 100 -468.383 5.1092
192      131.586 1 2 100 -468.383 2.47852
193      131.586 1 2 100 -468.383 6.13104
194      131.586 1 2 100 -468.383 3.50036
195      131.586 1 2 100 -468.383 0.869689
196      131.586 1 2 100 -468.383 4.5222
197      131.586 1 2 100 -468.383 1.89153
198      131.586 1 2 100 -468.383 5.54404
199      131.586 1 2 100 -468.383 2.91337
200      131.586 1 2 100 -468.383 0.282695
201      131.586 1 2 100 -468.383 3.93521
202      131.586 1 2 100 -468.383 1.30453
203      131.586 1 2 100 -468.383 4.95705
204      131.586 1 2 100 -468.383 2.32637
205      131.586 1 2 100 -468.383 5.97889
206      131.586 1 2 100 -468.383 3.34821
207      131.586 1 2 100 -468.383 0.71754
208      131.586 1 2 100 -468.383 4.37005
209      131.586 1 2 100 -468.383 1.73938
210      131.586 1 2 100 -468.383 5.39189
211      131.586 1 2 100 -468.383 2.76122
212      131.586 1 2 100 -468.383 0.130545
213      131.586 1 2 100 -468.383 3.78306
214      131.586 1 2 100 -468.383 1.15238
215      131.586 1 2 100 -468.383 4.8049
216      131.586 1 2 100 -468.383 2.17422
217      131.586 1 2 100 -462.22 0
218      131.586 1 2 100 -462.22 5.58862
219      131.586 1 2 100 -462.22 4.89405
220      131.586 1 2 100 -462.22 4.19948
221      131.586 1 2 100 -462.22 3.50491
222      131.586 1 2 100 -462.22 2.81034
223      131.586 1 2 100 -462.22 2.11577
224      131.586 1 2 100 -462.22 1.4212
225      131.586 1 2 100 -462.22 0.726636
226      131.586 1 2 100 -462.22 0.0320677
227      131.586 1 2 100 -462.22 5.62068
228      131.586 1 2 100 -462.22 4.92612
229      131.586 1 2 100 -462.22 4.23155
230      131.586 1 2 100 -462.22 3.53698
231      131.586 1 2 100 -462.22 2.84241
232      131.586 1 2 100 -462.22 2.14784
233      131.586 1 2 100 -462.22 1.45327
234      131.586 1 2 100 -462.22 0.758704
235      131.586 1 2 100 -462.22 0.0641354
236      131.586 1 2 100 -462.22 5.65275
237      131.586 1 2 100 -462.22 4.95818
238      131.586 1 2 100 -462.22 4.26361
239      131.586 1 2 100 -462.22 3.56905
240      131.586 1 2 100 -462.22 2.87448
241      131.586 1 2 100 -462.22 2.17991
242      131.586 1 2 100 -462.22 1.48534
243      131.586 1 2 100 -462.22 0.790772
244      131.586 1 2 100 -462.22 0.0962031
245      131.586 1 2 100 -462.22 5.68482
246      131.586 1 2 100 -462.22 4.99025
247      131.586 1 2 100 -462.22 4.29568
248      131.586 1 2 100 -462.22 3.60111
249      131.586 1 2 100 -462.22 2.90655
250      131.586 1 2 100 -462.22 2.21198
251      131.586 1 2 100 -462.22 1.51741
252      131.586 1 2 100 -462.22 0.822839
253      131.586 1 2 100 -456.057 0
254      131.586 1 2 100 -456.057 1.24154
255      131.586 1 2 100 -456.057 2.48307
256      131.586 1 2 100 -456.057 3.72461
257      131.586 1 2 100 -456.057 4.96614
258      131.586 1 2 100 -456.057 6.20768
259      131.586 1 2 100 -456.057 1.16603
260      131.586 1 2 100 -456.057 2.40757
261      131.586 1 2 100 -456.057 3.6491
262      131.586 1 2 100 -456.057 4.89064
263      131.586 1 2 100 -456.057 6.13217
264      131.586 1 2 100 -456.057 1.09052
265      131.586 1 2 100 -456.057 2.33206
266      131.586 1 2 100 -456.057 3.57359
267      131.586 1 2 100 -456.057 4.81513
268      131.586 1 2 100 -456.057 6.05667
269      131.586 1 2 100 -456.057 1.01502
270      131.586 1 2 100 -456.057 2.25655
271      131.586 1 2 100 -456.057 3.49809
272      131.586 1 2 100 -456.057 4.73962
273      131.586 1 2 100 -456.057 5.98116
274      131.586 1 2 100 -456.057 0.93951
275      131.586 1 2 100 -456.057 2.18105
276      131.586 1 2 100 -456.057 3.42258
277      131.586 1 2 100 -456.057 4.66412
278      131.586 1 2 100 -456.057 5.90565
279      131.586 1 2 100 -456.057 0.864004
280      131.586 1 2 100 -456.057 2.10554
281      131.586 1 2 100 -456.057 3.34708
282      131.586 1 2 100 -456.057 4.58861
283      131.586 1 2 100 -456.057 5.83015
284      131.586 1 2 100 -456.057 0.788497
285      131.586 1 2 100 -456.057 2.03003
286      131.586 1 2 100 -456.057 3.27157
287      131.586 1 2 100 -456.057 4.5131
288      131.586 1 2 100 -456.057 5.75464
289      131.586 1 2 100 -449.894 0
290      131.586 1 2 100 -449.894 3.17764
291      131.586 1 2 100 -449.894 0.0720951
292      131.586 1 2 100 -449.894 3.24974
293      131.586 1 2 100 -449.894 0.14419
294      131.586 1 2 100 -449.894 3.32183
295      131.586 1 2 100 -449.894 0.216285
296      131.586 1 2 100 -449.894 3.39393
297      131.586 1 2 100 -449.894 0.28838
298      131.586 1 2 100 -449.894 3.46602
299      131.586 1 2 100 -449.894 0.360475
300      131.586 1 2 100 -449.894 3.53812
301      131.586 1 2 100 -449.894 0.43257
302      131.586 1 2 100 -449.894 3.61021
303      131.586 1 2 100 -449.894 0.504666
304      131.586 1 2 100 -449.894 3.68231
305      131.586 1 2 100 -449.894 0.576761
306      131.586 1 2 100 -449.894 3.7544
307      131.586 1 2 100 -449.894 0.648856
308      131.586 1 2 100 -449.894 3.8265
309      131.586 1 2 100 -449.894 0.720951
310      131.586 1 2 100 -449.894 3.89859
311      131.586 1 2 100 -449.894 0.793046
312      131.586 1 2 100 -449.894 3.97069
313      131.586 1 2 100 -449.894 0.865141
314      131.586 1 2 100 -449.894 4.04278
315      131.586 1 2 100 -449.894 0.937236
316      131.586 1 2 100 -449.894 4.11488
317      131.586 1 2 100 -449.894 1.00933
318      131.586 1 2 100 -449.894 4.18697
319      131.586 1 2 100 -449.894 1.08143
320      131.586 1 2 100 -449.894 4.25907
321      131.586 1 2 100 -449.894 1.15352
322      131.586 1 2 100 -449.894 4.33116
323      131.586 1 2 100 -449.894 1.22562
324      131.586 1 2 100 -449.894 4.40326
325      131.586 1 2 100 -443.731 0
326      131.586 1 2 100 -443.731 5.11374
327      131.586 1 2 100 -443.731 3.9443
328      131.586 1 2 100 -443.731 2.77486
329      131.586 1 2 100 -443.731 1.60542
330      131.586 1 2 100 -443.731 0.435982
331      131.586 1 2 100 -443.731 5.54973
332      131.586 1 2 100 -443.731 4.38029
333      131.586 1 2 100 -443.731 3.21084
334      131.586 1 2 100 -443.731 2.0414
335      131.586 1 2 100 -443.731 0.871964
336      131.586 1 2 100 -443.731 5.98571
337      131.586 1 2 100 -443.731 4.81627
338      131.586 1 2 100 -443.731 3.64683
339      131.586 1 2 100 -443.731 2.47739
340      131.586 1 2 100 -443.731 1.30795
341      131.586 1 2 100 -443.731 0.138505
342      131.586 1 2 100 -443.731 5.25225
343      131.586 1 2 100 -443.731 4.08281
344      131.586 1 2 100 -443.731 2.91337
345      131.586 1 2 100 -443.731 1.74393
346      131.586 1 2 100 -443.731 0.574486
347      131.586 1 2 100 -443.731 5.68823
348      131.586 1 2 100 -443.731 4.51879
349      131.586 1 2 100 -443.731 3.34935
350      131.586 1 2 100 -443.731 2.17991
351      131.586 1 2 100 -443.731 1.01047
352      131.586 1 2 100 -443.731 6.12421
353      131.586 1 2 100 -443.731 4.95477
354      131.586 1 2 100 -443.731 3.78533
355      131.586 1 2 100 -443.731 2.61589
356      131.586 1 2 100 -443.731 1.44645
357      131.586 1 2 100 -443.731 0.277009
358      131.586 1 2 100 -443.731 5.39075
359      131.586 1 2 100 -443.731 4.22131
360      131.586 1 2 100 -443.731 3.05187
361      131.586 1 2 100 -437.568 0
362      131.586 1 2 100 -437.568 0.766664
363      131.586 1 2 100 -437.568 1.53333
364      131.586 1 2 100 -437.568 2.29999
365      131.586 1 2 100 -437.568 3.06665
366      131.586 1 2 100 -437.568 3.83332
367      131.586 1 2 100 -437.568 4.59998
368      131.586 1 2 100 -437.568 5.36665
369      131.586 1 2 100 -437.568 6.13331
370      131.586 1 2 100 -437.568 0.616788
371      131.586 1 2 100 -437.568 1.38345
372      131.586 1 2 100 -437.568 2.15012
373      131.586 1 2 100 -437.568 2.91678
374      131.586 1 2 100 -437.568 3.68344
375      131.586 1 2 100 -437.568 4.45011
376      131.586 1 2 100 -437.568 5.21677
377      131.586 1 2 100 -437.568 5.98343
378      131.586 1 2 100 -437.568 0.466912
379      131.586 1 2 100 -437.568 1.23358
380      131.586 1 2 100 -437.568 2.00024
381      131.586 1 2 100 -437.568 2.7669
382      131.586 1 2 100 -437.568 3.53357
383      131.586 1 2 100 -437.568 4.30023
384      131.586 1 2 100 -437.568 5.06689
385      131.586 1 2 100 -437.568 5.83356
386      131.586 1 2 100 -437.568 0.317037
387      131.586 1 2 100 -437.568 1.0837
388      131.586 1 2 100 -437.568 1.85036
389      131.586 1 2 100 -437.568 2.61703
390      131.586 1 2 100 -437.568 3.38369
391      131.586 1 2 100 -437.568 4.15036
392      131.586 1 2 100 -437.568 4.91702
393      131.586 1 2 100 -437.568 5.68368
394      131.586 1 2 100 -437.568 0.167161
395      131.586 1 2 100 -437.568 0.933825
396      131.586 1 2 100 -437.568 1.70049
397      131.586 1 2 100 -431.405 0
398      131.586 1 2 100 -431.405 2.70277
399      131.586 1 2 100 -431.405 5.40554
400      131.586 1 2 100 -431.405 1.82512
401      131.586 1 2 100 -431.405 4.52789
402      131.586 1 2 100 -431.405 0.94747
403      131.586 1 2 100 -431.405 3.65024
404      131.586 1 2 100 -431.405 0.0698209
405      131.586 1 2 100 -431.405 2.77259
406      131.586 1 2 100 -431.405 5.47536
407      131.586 1 2 100 -431.405 1.89494
408      131.586 1 2 100 -431.405 4.59771
409      131.586 1 2 100 -431.405 1.01729
410      131.586 1 2 100 -431.405 3.72006
411      131.586 1 2 100 -431.405 0.139642
412      131.586 1 2 100 -431.405 2.84241
413      131.586 1 2 100 -431.405 5.54518
414      131.586 1 2 100 -431.405 1.96476
415      131.586 1 2 100 -431.405 4.66753
416      131.586 1 2 100 -431.405 1.08711
417      131.586 1 2 100 -431.405 3.78988
418      131.586 1 2 100 -431.405 0.209463
419      131.586 1 2 100 -431.405 2.91223
420      131.586 1 2 100 -431.405 5.615
421      131.586 1 2 100 -431.405 2.03458
422      131.586 1 2 100 -431.405 4.73735
423      131.586 1 2 100 -431.405 1.15693
424      131.586 1 2 100 -431.405 3.8597
425      131.586 1 2 100 -431.405 0.279284
426      131.586 1 2 100 -431.405 2.98205
427      131.586 1 2 100 -431.405 5.68482
428      131.586 1 2 100 -431.405 2.1044
429      131.586 1 2 100 -431.405 4.80717
430      131.586 1 2 100 -431.405 1.22675
431      131.586 1 2 100 -431.405 3.92952
432      131.586 1 2 100 -431.405 0.349104
433      131.586 1 2 100 -425.243 0
434      131.586 1 2 100 -425.243 4.63887
435      131.586 1 2 100 -425.243 2.99456
436      131.586 1 2 100 -425.243 1.35025
437      131.586 1 2 100 -425.243 5.98912
438      131.586 1 2 100 -425.243 4.34481
439      131.586 1 2 100 -425.243 2.70049
440      131.586 1 2 100 -425.243 1.05618
441      131.586 1 2 100 -425.243 5.69505
442      131.586 1 2 100 -425.243 4.05074
443      131.586 1 2 100 -425.243 2.40643
444      131.586 1 2 100 -425.243 0.762115
445      131.586 1 2 100 -425.243 5.40099
446      131.586 1 2 100 -425.243 3.75668
447      131.586 1 2 100 -425.243 2.11236
448      131.586 1 2 100 -425.243 0.468049
449      131.586 1 2 100 -425.243 5.10692
450      131.586 1 2 100 -425.243 3.46261
451      131.586 1 2 100 -425.243 1.8183
452      131.586 1 2 100 -425.243 0.173984
453      131.586 1 2 100 -425.243 4.81286
454      131.586 1 2 100 -425.243 3.16854
455      131.586 1 2 100 -425.243 1.52423
456      131.586 1 2 100 -425.243 6.1631
457      131.586 1 2 100 -425.243 4.51879
458      131.586 1 2 100 -425.243 2.87448
459      131.586 1 2 100 -425.243 1.23016
460      131.586 1 2 100 -425.243 5.86904
461      131.586 1 2 100 -425.243 4.22472
462      131.586 1 2 100 -425.243 2.58041
463      131.586 1 2 100 -425.243 0.936099
464      131.586 1 2 100 -425.243 5.57497
465      131.586 1 2 100 -425.243 3.93066
466      131.586 1 2 100 -425.243 2.28635
467      131.586 1 2 100 -425.243 0.642033
468      131.586 1 2 100 -425.243 5.28091
469      131.586 1 2 100 -419.08 0
470      131.586 1 2 100 -419.08 0.291792
471      131.586 1 2 100 -419.08 0.583583
472      131.586 1 2 100 -419.08 0.875375
473      131.586 1 2 100 -419.08 1.16717
474      131.586 1 2 100 -419.08 1.45896
475      131.586 1 2 100 -419.08 1.75075
476      131.586 1 2 100 -419.08 2.04254
477      131.586 1 2 100 -419.08 2.33433
478      131.586 1 2 100 -419.08 2.62612
479      131.586 1 2 100 -419.08 2.91792
480      131.586 1 2 100 -419.08 3.20971
