# Pulseq sequence file
# Created by MATLAB mr toolbox

# Created for Pulseq-CEST
# https://pulseq-cest.github.io/
# Created by: JRS
# Created at: 13-Jul-2023 16:20:43

[VERSION]
major 1
minor 3
revision 1

[DEFINITIONS]
B0 2.89500052 
B1pa 1.78 
B1rms 1.8 
DCsat 0.909090909 
FREQ 123.2587 
M0_offset -300 
Trec 3.5 
Trec_M0 3.5 
Tsat 0.215 
n_pulses 4 
num_meas 162 
offsets_ppm -300 -4 -3.95 -3.9 -3.85 -3.8 -3.75 -3.7 -3.65 -3.6 -3.55 -3.5 -3.45 -3.4 -3.35 -3.3 -3.25 -3.2 -3.15 -3.1 -3.05 -3 -2.95 -2.9 -2.85 -2.8 -2.75 -2.7 -2.65 -2.6 -2.55 -2.5 -2.45 -2.4 -2.35 -2.3 -2.25 -2.2 -2.15 -2.1 -2.05 -2 -1.95 -1.9 -1.85 -1.8 -1.75 -1.7 -1.65 -1.6 -1.55 -1.5 -1.45 -1.4 -1.35 -1.3 -1.25 -1.2 -1.15 -1.1 -1.05 -1 -0.95 -0.9 -0.85 -0.8 -0.75 -0.7 -0.65 -0.6 -0.55 -0.5 -0.45 -0.4 -0.35 -0.3 -0.25 -0.2 -0.15 -0.1 -0.05 0 0.05 0.1 0.15 0.2 0.25 0.3 0.35 0.4 0.45 0.5 0.55 0.6 0.65 0.7 0.75 0.8 0.85 0.9 0.95 1 1.05 1.1 1.15 1.2 1.25 1.3 1.35 1.4 1.45 1.5 1.55 1.6 1.65 1.7 1.75 1.8 1.85 1.9 1.95 2 2.05 2.1 2.15 2.2 2.25 2.3 2.35 2.4 2.45 2.5 2.55 2.6 2.65 2.7 2.75 2.8 2.85 2.9 2.95 3 3.05 3.1 3.15 3.2 3.25 3.3 3.35 3.4 3.45 3.5 3.55 3.6 3.65 3.7 3.75 3.8 3.85 3.9 3.95 4 
seq_id_string  
spoiling 1 
td 0.005 
tp 0.05 

# Format of blocks:
#  #  D RF  GX  GY  GZ ADC EXT
[BLOCKS]
   1  1  0   0   0   0  0  0
   2  0  1   0   0   0  0  0
   3  0  0   1   1   1  0  0
   4  0  2   0   0   0  0  0
   5  0  0   1   1   1  0  0
   6  0  3   0   0   0  0  0
   7  0  0   1   1   1  0  0
   8  0  4   0   0   0  0  0
   9  0  0   2   2   2  0  0
  10  0  0   0   0   0  1  0
  11  1  0   0   0   0  0  0
  12  0  5   0   0   0  0  0
  13  0  0   1   1   1  0  0
  14  0  6   0   0   0  0  0
  15  0  0   1   1   1  0  0
  16  0  7   0   0   0  0  0
  17  0  0   1   1   1  0  0
  18  0  8   0   0   0  0  0
  19  0  0   2   2   2  0  0
  20  0  0   0   0   0  1  0
  21  1  0   0   0   0  0  0
  22  0  9   0   0   0  0  0
  23  0  0   1   1   1  0  0
  24  0 10   0   0   0  0  0
  25  0  0   1   1   1  0  0
  26  0 11   0   0   0  0  0
  27  0  0   1   1   1  0  0
  28  0 12   0   0   0  0  0
  29  0  0   2   2   2  0  0
  30  0  0   0   0   0  1  0
  31  1  0   0   0   0  0  0
  32  0 13   0   0   0  0  0
  33  0  0   1   1   1  0  0
  34  0 14   0   0   0  0  0
  35  0  0   1   1   1  0  0
  36  0 15   0   0   0  0  0
  37  0  0   1   1   1  0  0
  38  0 16   0   0   0  0  0
  39  0  0   2   2   2  0  0
  40  0  0   0   0   0  1  0
  41  1  0   0   0   0  0  0
  42  0 17   0   0   0  0  0
  43  0  0   1   1   1  0  0
  44  0 18   0   0   0  0  0
  45  0  0   1   1   1  0  0
  46  0 19   0   0   0  0  0
  47  0  0   1   1   1  0  0
  48  0 20   0   0   0  0  0
  49  0  0   2   2   2  0  0
  50  0  0   0   0   0  1  0
  51  1  0   0   0   0  0  0
  52  0 21   0   0   0  0  0
  53  0  0   1   1   1  0  0
  54  0 22   0   0   0  0  0
  55  0  0   1   1   1  0  0
  56  0 23   0   0   0  0  0
  57  0  0   1   1   1  0  0
  58  0 24   0   0   0  0  0
  59  0  0   2   2   2  0  0
  60  0  0   0   0   0  1  0
  61  1  0   0   0   0  0  0
  62  0 25   0   0   0  0  0
  63  0  0   1   1   1  0  0
  64  0 26   0   0   0  0  0
  65  0  0   1   1   1  0  0
  66  0 27   0   0   0  0  0
  67  0  0   1   1   1  0  0
  68  0 28   0   0   0  0  0
  69  0  0   2   2   2  0  0
  70  0  0   0   0   0  1  0
  71  1  0   0   0   0  0  0
  72  0 29   0   0   0  0  0
  73  0  0   1   1   1  0  0
  74  0 30   0   0   0  0  0
  75  0  0   1   1   1  0  0
  76  0 31   0   0   0  0  0
  77  0  0   1   1   1  0  0
  78  0 32   0   0   0  0  0
  79  0  0   2   2   2  0  0
  80  0  0   0   0   0  1  0
  81  1  0   0   0   0  0  0
  82  0 33   0   0   0  0  0
  83  0  0   1   1   1  0  0
  84  0 34   0   0   0  0  0
  85  0  0   1   1   1  0  0
  86  0 35   0   0   0  0  0
  87  0  0   1   1   1  0  0
  88  0 36   0   0   0  0  0
  89  0  0   2   2   2  0  0
  90  0  0   0   0   0  1  0
  91  1  0   0   0   0  0  0
  92  0 37   0   0   0  0  0
  93  0  0   1   1   1  0  0
  94  0 38   0   0   0  0  0
  95  0  0   1   1   1  0  0
  96  0 39   0   0   0  0  0
  97  0  0   1   1   1  0  0
  98  0 40   0   0   0  0  0
  99  0  0   2   2   2  0  0
 100  0  0   0   0   0  1  0
 101  1  0   0   0   0  0  0
 102  0 41   0   0   0  0  0
 103  0  0   1   1   1  0  0
 104  0 42   0   0   0  0  0
 105  0  0   1   1   1  0  0
 106  0 43   0   0   0  0  0
 107  0  0   1   1   1  0  0
 108  0 44   0   0   0  0  0
 109  0  0   2   2   2  0  0
 110  0  0   0   0   0  1  0
 111  1  0   0   0   0  0  0
 112  0 45   0   0   0  0  0
 113  0  0   1   1   1  0  0
 114  0 46   0   0   0  0  0
 115  0  0   1   1   1  0  0
 116  0 47   0   0   0  0  0
 117  0  0   1   1   1  0  0
 118  0 48   0   0   0  0  0
 119  0  0   2   2   2  0  0
 120  0  0   0   0   0  1  0
 121  1  0   0   0   0  0  0
 122  0 49   0   0   0  0  0
 123  0  0   1   1   1  0  0
 124  0 50   0   0   0  0  0
 125  0  0   1   1   1  0  0
 126  0 51   0   0   0  0  0
 127  0  0   1   1   1  0  0
 128  0 52   0   0   0  0  0
 129  0  0   2   2   2  0  0
 130  0  0   0   0   0  1  0
 131  1  0   0   0   0  0  0
 132  0 53   0   0   0  0  0
 133  0  0   1   1   1  0  0
 134  0 54   0   0   0  0  0
 135  0  0   1   1   1  0  0
 136  0 55   0   0   0  0  0
 137  0  0   1   1   1  0  0
 138  0 56   0   0   0  0  0
 139  0  0   2   2   2  0  0
 140  0  0   0   0   0  1  0
 141  1  0   0   0   0  0  0
 142  0 57   0   0   0  0  0
 143  0  0   1   1   1  0  0
 144  0 58   0   0   0  0  0
 145  0  0   1   1   1  0  0
 146  0 59   0   0   0  0  0
 147  0  0   1   1   1  0  0
 148  0 60   0   0   0  0  0
 149  0  0   2   2   2  0  0
 150  0  0   0   0   0  1  0
 151  1  0   0   0   0  0  0
 152  0 61   0   0   0  0  0
 153  0  0   1   1   1  0  0
 154  0 62   0   0   0  0  0
 155  0  0   1   1   1  0  0
 156  0 63   0   0   0  0  0
 157  0  0   1   1   1  0  0
 158  0 64   0   0   0  0  0
 159  0  0   2   2   2  0  0
 160  0  0   0   0   0  1  0
 161  1  0   0   0   0  0  0
 162  0 65   0   0   0  0  0
 163  0  0   1   1   1  0  0
 164  0 66   0   0   0  0  0
 165  0  0   1   1   1  0  0
 166  0 67   0   0   0  0  0
 167  0  0   1   1   1  0  0
 168  0 68   0   0   0  0  0
 169  0  0   2   2   2  0  0
 170  0  0   0   0   0  1  0
 171  1  0   0   0   0  0  0
 172  0 69   0   0   0  0  0
 173  0  0   1   1   1  0  0
 174  0 70   0   0   0  0  0
 175  0  0   1   1   1  0  0
 176  0 71   0   0   0  0  0
 177  0  0   1   1   1  0  0
 178  0 72   0   0   0  0  0
 179  0  0   2   2   2  0  0
 180  0  0   0   0   0  1  0
 181  1  0   0   0   0  0  0
 182  0 73   0   0   0  0  0
 183  0  0   1   1   1  0  0
 184  0 74   0   0   0  0  0
 185  0  0   1   1   1  0  0
 186  0 75   0   0   0  0  0
 187  0  0   1   1   1  0  0
 188  0 76   0   0   0  0  0
 189  0  0   2   2   2  0  0
 190  0  0   0   0   0  1  0
 191  1  0   0   0   0  0  0
 192  0 77   0   0   0  0  0
 193  0  0   1   1   1  0  0
 194  0 78   0   0   0  0  0
 195  0  0   1   1   1  0  0
 196  0 79   0   0   0  0  0
 197  0  0   1   1   1  0  0
 198  0 80   0   0   0  0  0
 199  0  0   2   2   2  0  0
 200  0  0   0   0   0  1  0
 201  1  0   0   0   0  0  0
 202  0 81   0   0   0  0  0
 203  0  0   1   1   1  0  0
 204  0 82   0   0   0  0  0
 205  0  0   1   1   1  0  0
 206  0 83   0   0   0  0  0
 207  0  0   1   1   1  0  0
 208  0 84   0   0   0  0  0
 209  0  0   2   2   2  0  0
 210  0  0   0   0   0  1  0
 211  1  0   0   0   0  0  0
 212  0 85   0   0   0  0  0
 213  0  0   1   1   1  0  0
 214  0 86   0   0   0  0  0
 215  0  0   1   1   1  0  0
 216  0 87   0   0   0  0  0
 217  0  0   1   1   1  0  0
 218  0 88   0   0   0  0  0
 219  0  0   2   2   2  0  0
 220  0  0   0   0   0  1  0
 221  1  0   0   0   0  0  0
 222  0 89   0   0   0  0  0
 223  0  0   1   1   1  0  0
 224  0 90   0   0   0  0  0
 225  0  0   1   1   1  0  0
 226  0 91   0   0   0  0  0
 227  0  0   1   1   1  0  0
 228  0 92   0   0   0  0  0
 229  0  0   2   2   2  0  0
 230  0  0   0   0   0  1  0
 231  1  0   0   0   0  0  0
 232  0 93   0   0   0  0  0
 233  0  0   1   1   1  0  0
 234  0 94   0   0   0  0  0
 235  0  0   1   1   1  0  0
 236  0 95   0   0   0  0  0
 237  0  0   1   1   1  0  0
 238  0 96   0   0   0  0  0
 239  0  0   2   2   2  0  0
 240  0  0   0   0   0  1  0
 241  1  0   0   0   0  0  0
 242  0 97   0   0   0  0  0
 243  0  0   1   1   1  0  0
 244  0 98   0   0   0  0  0
 245  0  0   1   1   1  0  0
 246  0 99   0   0   0  0  0
 247  0  0   1   1   1  0  0
 248  0 100   0   0   0  0  0
 249  0  0   2   2   2  0  0
 250  0  0   0   0   0  1  0
 251  1  0   0   0   0  0  0
 252  0 101   0   0   0  0  0
 253  0  0   1   1   1  0  0
 254  0 102   0   0   0  0  0
 255  0  0   1   1   1  0  0
 256  0 103   0   0   0  0  0
 257  0  0   1   1   1  0  0
 258  0 104   0   0   0  0  0
 259  0  0   2   2   2  0  0
 260  0  0   0   0   0  1  0
 261  1  0   0   0   0  0  0
 262  0 105   0   0   0  0  0
 263  0  0   1   1   1  0  0
 264  0 106   0   0   0  0  0
 265  0  0   1   1   1  0  0
 266  0 107   0   0   0  0  0
 267  0  0   1   1   1  0  0
 268  0 108   0   0   0  0  0
 269  0  0   2   2   2  0  0
 270  0  0   0   0   0  1  0
 271  1  0   0   0   0  0  0
 272  0 109   0   0   0  0  0
 273  0  0   1   1   1  0  0
 274  0 110   0   0   0  0  0
 275  0  0   1   1   1  0  0
 276  0 111   0   0   0  0  0
 277  0  0   1   1   1  0  0
 278  0 112   0   0   0  0  0
 279  0  0   2   2   2  0  0
 280  0  0   0   0   0  1  0
 281  1  0   0   0   0  0  0
 282  0 113   0   0   0  0  0
 283  0  0   1   1   1  0  0
 284  0 114   0   0   0  0  0
 285  0  0   1   1   1  0  0
 286  0 115   0   0   0  0  0
 287  0  0   1   1   1  0  0
 288  0 116   0   0   0  0  0
 289  0  0   2   2   2  0  0
 290  0  0   0   0   0  1  0
 291  1  0   0   0   0  0  0
 292  0 117   0   0   0  0  0
 293  0  0   1   1   1  0  0
 294  0 118   0   0   0  0  0
 295  0  0   1   1   1  0  0
 296  0 119   0   0   0  0  0
 297  0  0   1   1   1  0  0
 298  0 120   0   0   0  0  0
 299  0  0   2   2   2  0  0
[RF]
1      127.751 1 2 100 -36977.6 0
2      127.751 1 2 100 -36977.6 0.750841
3      127.751 1 2 100 -36977.6 1.50168
4      127.751 1 2 100 -36977.6 2.25252
5      127.751 1 2 100 -493.035 0
6      127.751 1 2 100 -493.035 2.18818
7      127.751 1 2 100 -493.035 4.37636
8      127.751 1 2 100 -493.035 0.281361
9      127.751 1 2 100 -486.872 0
10      127.751 1 2 100 -486.872 4.12433
11      127.751 1 2 100 -486.872 1.96547
12      127.751 1 2 100 -486.872 6.08979
13      127.751 1 2 100 -480.709 0
14      127.751 1 2 100 -480.709 6.06047
15      127.751 1 2 100 -480.709 5.83775
16      127.751 1 2 100 -480.709 5.61503
17      127.751 1 2 100 -474.546 0
18      127.751 1 2 100 -474.546 1.71343
19      127.751 1 2 100 -474.546 3.42685
20      127.751 1 2 100 -474.546 5.14028
21      127.751 1 2 100 -468.383 0
22      127.751 1 2 100 -468.383 3.64957
23      127.751 1 2 100 -468.383 1.01595
24      127.751 1 2 100 -468.383 4.66552
25      127.751 1 2 100 -462.22 0
26      127.751 1 2 100 -462.22 5.58571
27      127.751 1 2 100 -462.22 4.88824
28      127.751 1 2 100 -462.22 4.19077
29      127.751 1 2 100 -456.057 0
30      127.751 1 2 100 -456.057 1.23867
31      127.751 1 2 100 -456.057 2.47734
32      127.751 1 2 100 -456.057 3.71601
33      127.751 1 2 100 -449.894 0
34      127.751 1 2 100 -449.894 3.17481
35      127.751 1 2 100 -449.894 0.0664415
36      127.751 1 2 100 -449.894 3.24125
37      127.751 1 2 100 -443.731 0
38      127.751 1 2 100 -443.731 5.11096
39      127.751 1 2 100 -443.731 3.93873
40      127.751 1 2 100 -443.731 2.7665
41      127.751 1 2 100 -437.568 0
42      127.751 1 2 100 -437.568 0.763914
43      127.751 1 2 100 -437.568 1.52783
44      127.751 1 2 100 -437.568 2.29174
45      127.751 1 2 100 -431.405 0
46      127.751 1 2 100 -431.405 2.70006
47      127.751 1 2 100 -431.405 5.40012
48      127.751 1 2 100 -431.405 1.81699
49      127.751 1 2 100 -425.243 0
50      127.751 1 2 100 -425.243 4.6362
51      127.751 1 2 100 -425.243 2.98922
52      127.751 1 2 100 -425.243 1.34223
53      127.751 1 2 100 -419.08 0
54      127.751 1 2 100 -419.08 0.289158
55      127.751 1 2 100 -419.08 0.578317
56      127.751 1 2 100 -419.08 0.867475
57      127.751 1 2 100 -412.917 0
58      127.751 1 2 100 -412.917 2.2253
59      127.751 1 2 100 -412.917 4.4506
60      127.751 1 2 100 -412.917 0.39272
61      127.751 1 2 100 -406.754 0
62      127.751 1 2 100 -406.754 4.16144
63      127.751 1 2 100 -406.754 2.0397
64      127.751 1 2 100 -406.754 6.20115
65      127.751 1 2 100 -400.591 0
66      127.751 1 2 100 -400.591 6.09759
67      127.751 1 2 100 -400.591 5.91199
68      127.751 1 2 100 -400.591 5.72639
69      127.751 1 2 100 -394.428 0
70      127.751 1 2 100 -394.428 1.75055
71      127.751 1 2 100 -394.428 3.50109
72      127.751 1 2 100 -394.428 5.25164
73      127.751 1 2 100 -388.265 0
74      127.751 1 2 100 -388.265 3.68669
75      127.751 1 2 100 -388.265 1.09019
76      127.751 1 2 100 -388.265 4.77688
77      127.751 1 2 100 -382.102 0
78      127.751 1 2 100 -382.102 5.62283
79      127.751 1 2 100 -382.102 4.96248
80      127.751 1 2 100 -382.102 4.30213
81      127.751 1 2 100 -375.939 0
82      127.751 1 2 100 -375.939 1.27579
83      127.751 1 2 100 -375.939 2.55158
84      127.751 1 2 100 -375.939 3.82737
85      127.751 1 2 100 -369.776 0
86      127.751 1 2 100 -369.776 3.21193
87      127.751 1 2 100 -369.776 0.140681
88      127.751 1 2 100 -369.776 3.35261
89      127.751 1 2 100 -363.613 0
90      127.751 1 2 100 -363.613 5.14808
91      127.751 1 2 100 -363.613 4.01297
92      127.751 1 2 100 -363.613 2.87786
93      127.751 1 2 100 -357.45 0
94      127.751 1 2 100 -357.45 0.801034
95      127.751 1 2 100 -357.45 1.60207
96      127.751 1 2 100 -357.45 2.4031
97      127.751 1 2 100 -351.287 0
98      127.751 1 2 100 -351.287 2.73718
99      127.751 1 2 100 -351.287 5.47435
100      127.751 1 2 100 -351.287 1.92835
101      127.751 1 2 100 -345.124 0
102      127.751 1 2 100 -345.124 4.67332
103      127.751 1 2 100 -345.124 3.06345
104      127.751 1 2 100 -345.124 1.45359
105      127.751 1 2 100 -338.961 0
106      127.751 1 2 100 -338.961 0.326278
107      127.751 1 2 100 -338.961 0.652556
108      127.751 1 2 100 -338.961 0.978834
109      127.751 1 2 100 -332.798 0
110      127.751 1 2 100 -332.798 2.26242
111      127.751 1 2 100 -332.798 4.52484
112      127.751 1 2 100 -332.798 0.504078
113      127.751 1 2 100 -326.636 0
114      127.751 1 2 100 -326.636 4.19856
115      127.751 1 2 100 -326.636 2.11394
116      127.751 1 2 100 -326.636 0.0293221
117      127.751 1 2 100 -320.473 0
118      127.751 1 2 100 -320.473 6.13471
119      127.751 1 2 100 -320.473 5.98623
120      127.751 1 2 100 -320.473 5.83775
121      127.751 1 2 100 -314.31 0
122      127.751 1 2 100 -314.31 1.78767
123      127.751 1 2 100 -314.31 3.57533
124      127.751 1 2 100 -314.31 5.363
125      127.751 1 2 100 -308.147 0
126      127.751 1 2 100 -308.147 3.72381
127      127.751 1 2 100 -308.147 1.16443
128      127.751 1 2 100 -308.147 4.88824
129      127.751 1 2 100 -301.984 0
130      127.751 1 2 100 -301.984 5.65995
131      127.751 1 2 100 -301.984 5.03672
132      127.751 1 2 100 -301.984 4.41348
133      127.751 1 2 100 -295.821 0
134      127.751 1 2 100 -295.821 1.31291
135      127.751 1 2 100 -295.821 2.62582
136      127.751 1 2 100 -295.821 3.93873
137      127.751 1 2 100 -289.658 0
138      127.751 1 2 100 -289.658 3.24905
139      127.751 1 2 100 -289.658 0.214919
140      127.751 1 2 100 -289.658 3.46397
141      127.751 1 2 100 -283.495 0
142      127.751 1 2 100 -283.495 5.1852
143      127.751 1 2 100 -283.495 4.08721
144      127.751 1 2 100 -283.495 2.98922
145      127.751 1 2 100 -277.332 0
146      127.751 1 2 100 -277.332 0.838153
147      127.751 1 2 100 -277.332 1.67631
148      127.751 1 2 100 -277.332 2.51446
149      127.751 1 2 100 -271.169 0
150      127.751 1 2 100 -271.169 2.7743
151      127.751 1 2 100 -271.169 5.54859
152      127.751 1 2 100 -271.169 2.0397
153      127.751 1 2 100 -265.006 0
154      127.751 1 2 100 -265.006 4.71044
155      127.751 1 2 100 -265.006 3.13769
156      127.751 1 2 100 -265.006 1.56495
157      127.751 1 2 100 -258.843 0
158      127.751 1 2 100 -258.843 0.363397
159      127.751 1 2 100 -258.843 0.726795
160      127.751 1 2 100 -258.843 1.09019
161      127.751 1 2 100 -252.68 0
162      127.751 1 2 100 -252.68 2.29954
163      127.751 1 2 100 -252.68 4.59908
164      127.751 1 2 100 -252.68 0.615436
165      127.751 1 2 100 -246.517 0
166      127.751 1 2 100 -246.517 4.23568
167      127.751 1 2 100 -246.517 2.18818
168      127.751 1 2 100 -246.517 0.140681
169      127.751 1 2 100 -240.354 0
170      127.751 1 2 100 -240.354 6.17183
171      127.751 1 2 100 -240.354 6.06047
172      127.751 1 2 100 -240.354 5.94911
173      127.751 1 2 100 -234.192 0
174      127.751 1 2 100 -234.192 1.82478
175      127.751 1 2 100 -234.192 3.64957
176      127.751 1 2 100 -234.192 5.47435
177      127.751 1 2 100 -228.029 0
178      127.751 1 2 100 -228.029 3.76093
179      127.751 1 2 100 -228.029 1.23867
180      127.751 1 2 100 -228.029 4.9996
181      127.751 1 2 100 -221.866 0
182      127.751 1 2 100 -221.866 5.69707
183      127.751 1 2 100 -221.866 5.11096
184      127.751 1 2 100 -221.866 4.52484
185      127.751 1 2 100 -215.703 0
186      127.751 1 2 100 -215.703 1.35003
187      127.751 1 2 100 -215.703 2.70006
188      127.751 1 2 100 -215.703 4.05009
189      127.751 1 2 100 -209.54 0
190      127.751 1 2 100 -209.54 3.28617
191      127.751 1 2 100 -209.54 0.289158
192      127.751 1 2 100 -209.54 3.57533
193      127.751 1 2 100 -203.377 0
194      127.751 1 2 100 -203.377 5.22232
195      127.751 1 2 100 -203.377 4.16144
196      127.751 1 2 100 -203.377 3.10057
197      127.751 1 2 100 -197.214 0
198      127.751 1 2 100 -197.214 0.875273
199      127.751 1 2 100 -197.214 1.75055
200      127.751 1 2 100 -197.214 2.62582
201      127.751 1 2 100 -191.051 0
202      127.751 1 2 100 -191.051 2.81142
203      127.751 1 2 100 -191.051 5.62283
204      127.751 1 2 100 -191.051 2.15106
205      127.751 1 2 100 -184.888 0
206      127.751 1 2 100 -184.888 4.74756
207      127.751 1 2 100 -184.888 3.21193
208      127.751 1 2 100 -184.888 1.67631
209      127.751 1 2 100 -178.725 0
210      127.751 1 2 100 -178.725 0.400517
211      127.751 1 2 100 -178.725 0.801034
212      127.751 1 2 100 -178.725 1.20155
213      127.751 1 2 100 -172.562 0
214      127.751 1 2 100 -172.562 2.33666
215      127.751 1 2 100 -172.562 4.67332
216      127.751 1 2 100 -172.562 0.726795
217      127.751 1 2 100 -166.399 0
218      127.751 1 2 100 -166.399 4.2728
219      127.751 1 2 100 -166.399 2.26242
220      127.751 1 2 100 -166.399 0.252039
221      127.751 1 2 100 -160.236 0
222      127.751 1 2 100 -160.236 6.20895
223      127.751 1 2 100 -160.236 6.13471
224      127.751 1 2 100 -160.236 6.06047
225      127.751 1 2 100 -154.073 0
226      127.751 1 2 100 -154.073 1.8619
227      127.751 1 2 100 -154.073 3.72381
228      127.751 1 2 100 -154.073 5.58571
229      127.751 1 2 100 -147.91 0
230      127.751 1 2 100 -147.91 3.79805
231      127.751 1 2 100 -147.91 1.31291
232      127.751 1 2 100 -147.91 5.11096
233      127.751 1 2 100 -141.748 0
234      127.751 1 2 100 -141.748 5.73419
235      127.751 1 2 100 -141.748 5.1852
236      127.751 1 2 100 -141.748 4.6362
237      127.751 1 2 100 -135.585 0
238      127.751 1 2 100 -135.585 1.38715
239      127.751 1 2 100 -135.585 2.7743
240      127.751 1 2 100 -135.585 4.16144
241      127.751 1 2 100 -129.422 0
242      127.751 1 2 100 -129.422 3.32329
243      127.751 1 2 100 -129.422 0.363397
244      127.751 1 2 100 -129.422 3.68669
245      127.751 1 2 100 -123.259 0
246      127.751 1 2 100 -123.259 5.25943
247      127.751 1 2 100 -123.259 4.23568
248      127.751 1 2 100 -123.259 3.21193
249      127.751 1 2 100 -117.096 0
250      127.751 1 2 100 -117.096 0.912392
251      127.751 1 2 100 -117.096 1.82478
252      127.751 1 2 100 -117.096 2.73718
253      127.751 1 2 100 -110.933 0
254      127.751 1 2 100 -110.933 2.84854
255      127.751 1 2 100 -110.933 5.69707
256      127.751 1 2 100 -110.933 2.26242
257      127.751 1 2 100 -104.77 0
258      127.751 1 2 100 -104.77 4.78468
259      127.751 1 2 100 -104.77 3.28617
260      127.751 1 2 100 -104.77 1.78767
261      127.751 1 2 100 -98.607 0
262      127.751 1 2 100 -98.607 0.437636
263      127.751 1 2 100 -98.607 0.875273
264      127.751 1 2 100 -98.607 1.31291
265      127.751 1 2 100 -92.444 0
266      127.751 1 2 100 -92.444 2.37378
267      127.751 1 2 100 -92.444 4.74756
268      127.751 1 2 100 -92.444 0.838153
269      127.751 1 2 100 -86.2811 0
270      127.751 1 2 100 -86.2811 4.30992
271      127.751 1 2 100 -86.2811 2.33666
272      127.751 1 2 100 -86.2811 0.363397
273      127.751 1 2 100 -80.1182 0
274      127.751 1 2 100 -80.1182 6.24607
275      127.751 1 2 100 -80.1182 6.20895
276      127.751 1 2 100 -80.1182 6.17183
277      127.751 1 2 100 -73.9552 0
278      127.751 1 2 100 -73.9552 1.89902
279      127.751 1 2 100 -73.9552 3.79805
280      127.751 1 2 100 -73.9552 5.69707
281      127.751 1 2 100 -67.7923 0
282      127.751 1 2 100 -67.7923 3.83517
283      127.751 1 2 100 -67.7923 1.38715
284      127.751 1 2 100 -67.7923 5.22232
285      127.751 1 2 100 -61.6294 0
286      127.751 1 2 100 -61.6294 5.77131
287      127.751 1 2 100 -61.6294 5.25943
288      127.751 1 2 100 -61.6294 4.74756
289      127.751 1 2 100 -55.4664 0
290      127.751 1 2 100 -55.4664 1.42427
291      127.751 1 2 100 -55.4664 2.84854
292      127.751 1 2 100 -55.4664 4.2728
293      127.751 1 2 100 -49.3035 0
294      127.751 1 2 100 -49.3035 3.36041
295      127.751 1 2 100 -49.3035 0.437636
296      127.751 1 2 100 -49.3035 3.79805
297      127.751 1 2 100 -43.1405 0
298      127.751 1 2 100 -43.1405 5.29655
299      127.751 1 2 100 -43.1405 4.30992
300      127.751 1 2 100 -43.1405 3.32329
301      127.751 1 2 100 -36.9776 0
302      127.751 1 2 100 -36.9776 0.949512
303      127.751 1 2 100 -36.9776 1.89902
304      127.751 1 2 100 -36.9776 2.84854
305      127.751 1 2 100 -30.8147 0
306      127.751 1 2 100 -30.8147 2.88565
307      127.751 1 2 100 -30.8147 5.77131
308      127.751 1 2 100 -30.8147 2.37378
309      127.751 1 2 100 -24.6517 0
310      127.751 1 2 100 -24.6517 4.8218
311      127.751 1 2 100 -24.6517 3.36041
312      127.751 1 2 100 -24.6517 1.89902
313      127.751 1 2 100 -18.4888 0
314      127.751 1 2 100 -18.4888 0.474756
315      127.751 1 2 100 -18.4888 0.949512
316      127.751 1 2 100 -18.4888 1.42427
317      127.751 1 2 100 -12.3259 0
318      127.751 1 2 100 -12.3259 2.4109
319      127.751 1 2 100 -12.3259 4.8218
320      127.751 1 2 100 -12.3259 0.949512
321      127.751 1 2 100 -6.16293 0
322      127.751 1 2 100 -6.16293 4.34704
323      127.751 1 2 100 -6.16293 2.4109
324      127.751 1 2 100 -6.16293 0.474756
325      127.751 1 2 100 0 0
326      127.751 1 2 100 6.16293 0
327      127.751 1 2 100 6.16293 1.93614
328      127.751 1 2 100 6.16293 3.87229
329      127.751 1 2 100 6.16293 5.80843
330      127.751 1 2 100 12.3259 0
331      127.751 1 2 100 12.3259 3.87229
332      127.751 1 2 100 12.3259 1.46139
333      127.751 1 2 100 12.3259 5.33367
334      127.751 1 2 100 18.4888 0
335      127.751 1 2 100 18.4888 5.80843
336      127.751 1 2 100 18.4888 5.33367
337      127.751 1 2 100 18.4888 4.85892
338      127.751 1 2 100 24.6517 0
339      127.751 1 2 100 24.6517 1.46139
340      127.751 1 2 100 24.6517 2.92277
341      127.751 1 2 100 24.6517 4.38416
342      127.751 1 2 100 30.8147 0
343      127.751 1 2 100 30.8147 3.39753
344      127.751 1 2 100 30.8147 0.511875
345      127.751 1 2 100 30.8147 3.90941
346      127.751 1 2 100 36.9776 0
347      127.751 1 2 100 36.9776 5.33367
348      127.751 1 2 100 36.9776 4.38416
349      127.751 1 2 100 36.9776 3.43465
350      127.751 1 2 100 43.1405 0
351      127.751 1 2 100 43.1405 0.986631
352      127.751 1 2 100 43.1405 1.97326
353      127.751 1 2 100 43.1405 2.95989
354      127.751 1 2 100 49.3035 0
355      127.751 1 2 100 49.3035 2.92277
356      127.751 1 2 100 49.3035 5.84555
357      127.751 1 2 100 49.3035 2.48514
358      127.751 1 2 100 55.4664 0
359      127.751 1 2 100 55.4664 4.85892
360      127.751 1 2 100 55.4664 3.43465
361      127.751 1 2 100 55.4664 2.01038
362      127.751 1 2 100 61.6294 0
363      127.751 1 2 100 61.6294 0.511875
364      127.751 1 2 100 61.6294 1.02375
365      127.751 1 2 100 61.6294 1.53563
366      127.751 1 2 100 67.7923 0
367      127.751 1 2 100 67.7923 2.44802
368      127.751 1 2 100 67.7923 4.89604
369      127.751 1 2 100 67.7923 1.06087
370      127.751 1 2 100 73.9552 0
371      127.751 1 2 100 73.9552 4.38416
372      127.751 1 2 100 73.9552 2.48514
373      127.751 1 2 100 73.9552 0.586114
374      127.751 1 2 100 80.1182 0
375      127.751 1 2 100 80.1182 0.0371195
376      127.751 1 2 100 80.1182 0.074239
377      127.751 1 2 100 80.1182 0.111358
378      127.751 1 2 100 86.2811 0
379      127.751 1 2 100 86.2811 1.97326
380      127.751 1 2 100 86.2811 3.94653
381      127.751 1 2 100 86.2811 5.91979
382      127.751 1 2 100 92.444 0
383      127.751 1 2 100 92.444 3.90941
384      127.751 1 2 100 92.444 1.53563
385      127.751 1 2 100 92.444 5.44503
386      127.751 1 2 100 98.607 0
387      127.751 1 2 100 98.607 5.84555
388      127.751 1 2 100 98.607 5.40791
389      127.751 1 2 100 98.607 4.97028
390      127.751 1 2 100 104.77 0
391      127.751 1 2 100 104.77 1.49851
392      127.751 1 2 100 104.77 2.99701
393      127.751 1 2 100 104.77 4.49552
394      127.751 1 2 100 110.933 0
395      127.751 1 2 100 110.933 3.43465
396      127.751 1 2 100 110.933 0.586114
397      127.751 1 2 100 110.933 4.02076
398      127.751 1 2 100 117.096 0
399      127.751 1 2 100 117.096 5.37079
400      127.751 1 2 100 117.096 4.4584
401      127.751 1 2 100 117.096 3.54601
402      127.751 1 2 100 123.259 0
403      127.751 1 2 100 123.259 1.02375
404      127.751 1 2 100 123.259 2.0475
405      127.751 1 2 100 123.259 3.07125
406      127.751 1 2 100 129.422 0
407      127.751 1 2 100 129.422 2.95989
408      127.751 1 2 100 129.422 5.91979
409      127.751 1 2 100 129.422 2.5965
410      127.751 1 2 100 135.585 0
411      127.751 1 2 100 135.585 4.89604
412      127.751 1 2 100 135.585 3.50889
413      127.751 1 2 100 135.585 2.12174
414      127.751 1 2 100 141.748 0
415      127.751 1 2 100 141.748 0.548995
416      127.751 1 2 100 141.748 1.09799
417      127.751 1 2 100 141.748 1.64698
418      127.751 1 2 100 147.91 0
419      127.751 1 2 100 147.91 2.48514
420      127.751 1 2 100 147.91 4.97028
421      127.751 1 2 100 147.91 1.17223
422      127.751 1 2 100 154.073 0
423      127.751 1 2 100 154.073 4.42128
424      127.751 1 2 100 154.073 2.55938
425      127.751 1 2 100 154.073 0.697473
426      127.751 1 2 100 160.236 0
427      127.751 1 2 100 160.236 0.074239
428      127.751 1 2 100 160.236 0.148478
429      127.751 1 2 100 160.236 0.222717
430      127.751 1 2 100 166.399 0
431      127.751 1 2 100 166.399 2.01038
432      127.751 1 2 100 166.399 4.02076
433      127.751 1 2 100 166.399 6.03115
434      127.751 1 2 100 172.562 0
435      127.751 1 2 100 172.562 3.94653
436      127.751 1 2 100 172.562 1.60987
437      127.751 1 2 100 172.562 5.55639
438      127.751 1 2 100 178.725 0
439      127.751 1 2 100 178.725 5.88267
440      127.751 1 2 100 178.725 5.48215
441      127.751 1 2 100 178.725 5.08163
442      127.751 1 2 100 184.888 0
443      127.751 1 2 100 184.888 1.53563
444      127.751 1 2 100 184.888 3.07125
445      127.751 1 2 100 184.888 4.60688
446      127.751 1 2 100 191.051 0
447      127.751 1 2 100 191.051 3.47177
448      127.751 1 2 100 191.051 0.660353
449      127.751 1 2 100 191.051 4.13212
450      127.751 1 2 100 197.214 0
451      127.751 1 2 100 197.214 5.40791
452      127.751 1 2 100 197.214 4.53264
453      127.751 1 2 100 197.214 3.65737
454      127.751 1 2 100 203.377 0
455      127.751 1 2 100 203.377 1.06087
456      127.751 1 2 100 203.377 2.12174
457      127.751 1 2 100 203.377 3.18261
458      127.751 1 2 100 209.54 0
459      127.751 1 2 100 209.54 2.99701
460      127.751 1 2 100 209.54 5.99403
461      127.751 1 2 100 209.54 2.70785
462      127.751 1 2 100 215.703 0
463      127.751 1 2 100 215.703 4.93316
464      127.751 1 2 100 215.703 3.58313
465      127.751 1 2 100 215.703 2.2331
466      127.751 1 2 100 221.866 0
467      127.751 1 2 100 221.866 0.586114
468      127.751 1 2 100 221.866 1.17223
469      127.751 1 2 100 221.866 1.75834
470      127.751 1 2 100 228.029 0
471      127.751 1 2 100 228.029 2.52226
472      127.751 1 2 100 228.029 5.04452
473      127.751 1 2 100 228.029 1.28359
474      127.751 1 2 100 234.192 0
475      127.751 1 2 100 234.192 4.4584
476      127.751 1 2 100 234.192 2.63362
477      127.751 1 2 100 234.192 0.808831
478      127.751 1 2 100 240.354 0
479      127.751 1 2 100 240.354 0.111358
480      127.751 1 2 100 240.354 0.222717
481      127.751 1 2 100 240.354 0.334075
482      127.751 1 2 100 246.517 0
483      127.751 1 2 100 246.517 2.0475
484      127.751 1 2 100 246.517 4.095
485      127.751 1 2 100 246.517 6.1425
486      127.751 1 2 100 252.68 0
487      127.751 1 2 100 252.68 3.98364
488      127.751 1 2 100 252.68 1.6841
489      127.751 1 2 100 252.68 5.66775
490      127.751 1 2 100 258.843 0
491      127.751 1 2 100 258.843 5.91979
492      127.751 1 2 100 258.843 5.55639
493      127.751 1 2 100 258.843 5.19299
494      127.751 1 2 100 265.006 0
495      127.751 1 2 100 265.006 1.57275
496      127.751 1 2 100 265.006 3.14549
497      127.751 1 2 100 265.006 4.71824
498      127.751 1 2 100 271.169 0
499      127.751 1 2 100 271.169 3.50889
500      127.751 1 2 100 271.169 0.734592
501      127.751 1 2 100 271.169 4.24348
502      127.751 1 2 100 277.332 0
