# Pulseq sequence file
# Created by MATLAB mr toolbox

# Created for Pulseq-CEST
# https://pulseq-cest.github.io/
# Created by: JRS
# Created at: 13-Jul-2023 12:15:05

[VERSION]
major 1
minor 3
revision 1

[DEFINITIONS]
B0 2.89500052 
B1pa 1.78 
B1rms 1.8 
DCsat 0.909090909 
FREQ 123.2587 
M0_offset -300 
Trec 3.5 
Trec_M0 3.5 
Tsat 0.27 
n_pulses 5 
num_meas 162 
offsets_ppm -300 -4 -3.95 -3.9 -3.85 -3.8 -3.75 -3.7 -3.65 -3.6 -3.55 -3.5 -3.45 -3.4 -3.35 -3.3 -3.25 -3.2 -3.15 -3.1 -3.05 -3 -2.95 -2.9 -2.85 -2.8 -2.75 -2.7 -2.65 -2.6 -2.55 -2.5 -2.45 -2.4 -2.35 -2.3 -2.25 -2.2 -2.15 -2.1 -2.05 -2 -1.95 -1.9 -1.85 -1.8 -1.75 -1.7 -1.65 -1.6 -1.55 -1.5 -1.45 -1.4 -1.35 -1.3 -1.25 -1.2 -1.15 -1.1 -1.05 -1 -0.95 -0.9 -0.85 -0.8 -0.75 -0.7 -0.65 -0.6 -0.55 -0.5 -0.45 -0.4 -0.35 -0.3 -0.25 -0.2 -0.15 -0.1 -0.05 0 0.05 0.1 0.15 0.2 0.25 0.3 0.35 0.4 0.45 0.5 0.55 0.6 0.65 0.7 0.75 0.8 0.85 0.9 0.95 1 1.05 1.1 1.15 1.2 1.25 1.3 1.35 1.4 1.45 1.5 1.55 1.6 1.65 1.7 1.75 1.8 1.85 1.9 1.95 2 2.05 2.1 2.15 2.2 2.25 2.3 2.35 2.4 2.45 2.5 2.55 2.6 2.65 2.7 2.75 2.8 2.85 2.9 2.95 3 3.05 3.1 3.15 3.2 3.25 3.3 3.35 3.4 3.45 3.5 3.55 3.6 3.65 3.7 3.75 3.8 3.85 3.9 3.95 4 
seq_id_string  
spoiling 1 
td 0.005 
tp 0.05 

# Format of blocks:
#  #  D RF  GX  GY  GZ ADC EXT
[BLOCKS]
   1  1  0   0   0   0  0  0
   2  0  1   0   0   0  0  0
   3  2  0   0   0   0  0  0
   4  0  2   0   0   0  0  0
   5  2  0   0   0   0  0  0
   6  0  3   0   0   0  0  0
   7  2  0   0   0   0  0  0
   8  0  4   0   0   0  0  0
   9  2  0   0   0   0  0  0
  10  0  5   0   0   0  0  0
  11  0  0   1   1   1  0  0
  12  0  0   0   0   0  1  0
  13  1  0   0   0   0  0  0
  14  0  6   0   0   0  0  0
  15  2  0   0   0   0  0  0
  16  0  7   0   0   0  0  0
  17  2  0   0   0   0  0  0
  18  0  8   0   0   0  0  0
  19  2  0   0   0   0  0  0
  20  0  9   0   0   0  0  0
  21  2  0   0   0   0  0  0
  22  0 10   0   0   0  0  0
  23  0  0   1   1   1  0  0
  24  0  0   0   0   0  1  0
  25  1  0   0   0   0  0  0
  26  0 11   0   0   0  0  0
  27  2  0   0   0   0  0  0
  28  0 12   0   0   0  0  0
  29  2  0   0   0   0  0  0
  30  0 13   0   0   0  0  0
  31  2  0   0   0   0  0  0
  32  0 14   0   0   0  0  0
  33  2  0   0   0   0  0  0
  34  0 15   0   0   0  0  0
  35  0  0   1   1   1  0  0
  36  0  0   0   0   0  1  0
  37  1  0   0   0   0  0  0
  38  0 16   0   0   0  0  0
  39  2  0   0   0   0  0  0
  40  0 17   0   0   0  0  0
  41  2  0   0   0   0  0  0
  42  0 18   0   0   0  0  0
  43  2  0   0   0   0  0  0
  44  0 19   0   0   0  0  0
  45  2  0   0   0   0  0  0
  46  0 20   0   0   0  0  0
  47  0  0   1   1   1  0  0
  48  0  0   0   0   0  1  0
  49  1  0   0   0   0  0  0
  50  0 21   0   0   0  0  0
  51  2  0   0   0   0  0  0
  52  0 22   0   0   0  0  0
  53  2  0   0   0   0  0  0
  54  0 23   0   0   0  0  0
  55  2  0   0   0   0  0  0
  56  0 24   0   0   0  0  0
  57  2  0   0   0   0  0  0
  58  0 25   0   0   0  0  0
  59  0  0   1   1   1  0  0
  60  0  0   0   0   0  1  0
  61  1  0   0   0   0  0  0
  62  0 26   0   0   0  0  0
  63  2  0   0   0   0  0  0
  64  0 27   0   0   0  0  0
  65  2  0   0   0   0  0  0
  66  0 28   0   0   0  0  0
  67  2  0   0   0   0  0  0
  68  0 29   0   0   0  0  0
  69  2  0   0   0   0  0  0
  70  0 30   0   0   0  0  0
  71  0  0   1   1   1  0  0
  72  0  0   0   0   0  1  0
  73  1  0   0   0   0  0  0
  74  0 31   0   0   0  0  0
  75  2  0   0   0   0  0  0
  76  0 32   0   0   0  0  0
  77  2  0   0   0   0  0  0
  78  0 33   0   0   0  0  0
  79  2  0   0   0   0  0  0
  80  0 34   0   0   0  0  0
  81  2  0   0   0   0  0  0
  82  0 35   0   0   0  0  0
  83  0  0   1   1   1  0  0
  84  0  0   0   0   0  1  0
  85  1  0   0   0   0  0  0
  86  0 36   0   0   0  0  0
  87  2  0   0   0   0  0  0
  88  0 37   0   0   0  0  0
  89  2  0   0   0   0  0  0
  90  0 38   0   0   0  0  0
  91  2  0   0   0   0  0  0
  92  0 39   0   0   0  0  0
  93  2  0   0   0   0  0  0
  94  0 40   0   0   0  0  0
  95  0  0   1   1   1  0  0
  96  0  0   0   0   0  1  0
  97  1  0   0   0   0  0  0
  98  0 41   0   0   0  0  0
  99  2  0   0   0   0  0  0
 100  0 42   0   0   0  0  0
 101  2  0   0   0   0  0  0
 102  0 43   0   0   0  0  0
 103  2  0   0   0   0  0  0
 104  0 44   0   0   0  0  0
 105  2  0   0   0   0  0  0
 106  0 45   0   0   0  0  0
 107  0  0   1   1   1  0  0
 108  0  0   0   0   0  1  0
 109  1  0   0   0   0  0  0
 110  0 46   0   0   0  0  0
 111  2  0   0   0   0  0  0
 112  0 47   0   0   0  0  0
 113  2  0   0   0   0  0  0
 114  0 48   0   0   0  0  0
 115  2  0   0   0   0  0  0
 116  0 49   0   0   0  0  0
 117  2  0   0   0   0  0  0
 118  0 50   0   0   0  0  0
 119  0  0   1   1   1  0  0
 120  0  0   0   0   0  1  0
 121  1  0   0   0   0  0  0
 122  0 51   0   0   0  0  0
 123  2  0   0   0   0  0  0
 124  0 52   0   0   0  0  0
 125  2  0   0   0   0  0  0
 126  0 53   0   0   0  0  0
 127  2  0   0   0   0  0  0
 128  0 54   0   0   0  0  0
 129  2  0   0   0   0  0  0
 130  0 55   0   0   0  0  0
 131  0  0   1   1   1  0  0
 132  0  0   0   0   0  1  0
 133  1  0   0   0   0  0  0
 134  0 56   0   0   0  0  0
 135  2  0   0   0   0  0  0
 136  0 57   0   0   0  0  0
 137  2  0   0   0   0  0  0
 138  0 58   0   0   0  0  0
 139  2  0   0   0   0  0  0
 140  0 59   0   0   0  0  0
 141  2  0   0   0   0  0  0
 142  0 60   0   0   0  0  0
 143  0  0   1   1   1  0  0
 144  0  0   0   0   0  1  0
 145  1  0   0   0   0  0  0
 146  0 61   0   0   0  0  0
 147  2  0   0   0   0  0  0
 148  0 62   0   0   0  0  0
 149  2  0   0   0   0  0  0
 150  0 63   0   0   0  0  0
 151  2  0   0   0   0  0  0
 152  0 64   0   0   0  0  0
 153  2  0   0   0   0  0  0
 154  0 65   0   0   0  0  0
 155  0  0   1   1   1  0  0
 156  0  0   0   0   0  1  0
 157  1  0   0   0   0  0  0
 158  0 66   0   0   0  0  0
 159  2  0   0   0   0  0  0
 160  0 67   0   0   0  0  0
 161  2  0   0   0   0  0  0
 162  0 68   0   0   0  0  0
 163  2  0   0   0   0  0  0
 164  0 69   0   0   0  0  0
 165  2  0   0   0   0  0  0
 166  0 70   0   0   0  0  0
 167  0  0   1   1   1  0  0
 168  0  0   0   0   0  1  0
 169  1  0   0   0   0  0  0
 170  0 71   0   0   0  0  0
 171  2  0   0   0   0  0  0
 172  0 72   0   0   0  0  0
 173  2  0   0   0   0  0  0
 174  0 73   0   0   0  0  0
 175  2  0   0   0   0  0  0
 176  0 74   0   0   0  0  0
 177  2  0   0   0   0  0  0
 178  0 75   0   0   0  0  0
 179  0  0   1   1   1  0  0
 180  0  0   0   0   0  1  0
 181  1  0   0   0   0  0  0
 182  0 76   0   0   0  0  0
 183  2  0   0   0   0  0  0
 184  0 77   0   0   0  0  0
 185  2  0   0   0   0  0  0
 186  0 78   0   0   0  0  0
 187  2  0   0   0   0  0  0
 188  0 79   0   0   0  0  0
 189  2  0   0   0   0  0  0
 190  0 80   0   0   0  0  0
 191  0  0   1   1   1  0  0
 192  0  0   0   0   0  1  0
 193  1  0   0   0   0  0  0
 194  0 81   0   0   0  0  0
 195  2  0   0   0   0  0  0
 196  0 82   0   0   0  0  0
 197  2  0   0   0   0  0  0
 198  0 83   0   0   0  0  0
 199  2  0   0   0   0  0  0
 200  0 84   0   0   0  0  0
 201  2  0   0   0   0  0  0
 202  0 85   0   0   0  0  0
 203  0  0   1   1   1  0  0
 204  0  0   0   0   0  1  0
 205  1  0   0   0   0  0  0
 206  0 86   0   0   0  0  0
 207  2  0   0   0   0  0  0
 208  0 87   0   0   0  0  0
 209  2  0   0   0   0  0  0
 210  0 88   0   0   0  0  0
 211  2  0   0   0   0  0  0
 212  0 89   0   0   0  0  0
 213  2  0   0   0   0  0  0
 214  0 90   0   0   0  0  0
 215  0  0   1   1   1  0  0
 216  0  0   0   0   0  1  0
 217  1  0   0   0   0  0  0
 218  0 91   0   0   0  0  0
 219  2  0   0   0   0  0  0
 220  0 92   0   0   0  0  0
 221  2  0   0   0   0  0  0
 222  0 93   0   0   0  0  0
 223  2  0   0   0   0  0  0
 224  0 94   0   0   0  0  0
 225  2  0   0   0   0  0  0
 226  0 95   0   0   0  0  0
 227  0  0   1   1   1  0  0
 228  0  0   0   0   0  1  0
 229  1  0   0   0   0  0  0
 230  0 96   0   0   0  0  0
 231  2  0   0   0   0  0  0
 232  0 97   0   0   0  0  0
 233  2  0   0   0   0  0  0
 234  0 98   0   0   0  0  0
 235  2  0   0   0   0  0  0
 236  0 99   0   0   0  0  0
 237  2  0   0   0   0  0  0
 238  0 100   0   0   0  0  0
 239  0  0   1   1   1  0  0
 240  0  0   0   0   0  1  0
 241  1  0   0   0   0  0  0
 242  0 101   0   0   0  0  0
 243  2  0   0   0   0  0  0
 244  0 102   0   0   0  0  0
 245  2  0   0   0   0  0  0
 246  0 103   0   0   0  0  0
 247  2  0   0   0   0  0  0
 248  0 104   0   0   0  0  0
 249  2  0   0   0   0  0  0
 250  0 105   0   0   0  0  0
 251  0  0   1   1   1  0  0
 252  0  0   0   0   0  1  0
 253  1  0   0   0   0  0  0
 254  0 106   0   0   0  0  0
 255  2  0   0   0   0  0  0
 256  0 107   0   0   0  0  0
 257  2  0   0   0   0  0  0
 258  0 108   0   0   0  0  0
 259  2  0   0   0   0  0  0
 260  0 109   0   0   0  0  0
 261  2  0   0   0   0  0  0
 262  0 110   0   0   0  0  0
 263  0  0   1   1   1  0  0
 264  0  0   0   0   0  1  0
 265  1  0   0   0   0  0  0
 266  0 111   0   0   0  0  0
 267  2  0   0   0   0  0  0
 268  0 112   0   0   0  0  0
 269  2  0   0   0   0  0  0
 270  0 113   0   0   0  0  0
 271  2  0   0   0   0  0  0
 272  0 114   0   0   0  0  0
 273  2  0   0   0   0  0  0
 274  0 115   0   0   0  0  0
 275  0  0   1   1   1  0  0
 276  0  0   0   0   0  1  0
 277  1  0   0   0   0  0  0
 278  0 116   0   0   0  0  0
 279  2  0   0   0   0  0  0
 280  0 117   0   0   0  0  0
 281  2  0   0   0   0  0  0
 282  0 118   0   0   0  0  0
 283  2  0   0   0   0  0  0
 284  0 119   0   0   0  0  0
 285  2  0   0   0   0  0  0
 286  0 120   0   0   0  0  0
 287  0  0   1   1   1  0  0
 288  0  0   0   0   0  1  0
 289  1  0   0   0   0  0  0
 290  0 121   0   0   0  0  0
 291  2  0   0   0   0  0  0
 292  0 122   0   0   0  0  0
 293  2  0   0   0   0  0  0
 294  0 123   0   0   0  0  0
 295  2  0   0   0   0  0  0
 296  0 124   0   0   0  0  0
 297  2  0   0   0   0  0  0
 298  0 125   0   0   0  0  0
 299  0  0   1   1   1  0  0
[RF]
1      127.751 1 2 100 -36977.6 0
2      127.751 1 2 100 -36977.6 0.750841
3      127.751 1 2 100 -36977.6 1.50168
4      127.751 1 2 100 -36977.6 2.25252
5      127.751 1 2 100 -36977.6 3.00336
6      127.751 1 2 100 -493.035 0
7      127.751 1 2 100 -493.035 2.18818
8      127.751 1 2 100 -493.035 4.37636
9      127.751 1 2 100 -493.035 0.281361
10      127.751 1 2 100 -493.035 2.46954
11      127.751 1 2 100 -486.872 0
12      127.751 1 2 100 -486.872 4.12433
13      127.751 1 2 100 -486.872 1.96547
14      127.751 1 2 100 -486.872 6.08979
15      127.751 1 2 100 -486.872 3.93093
16      127.751 1 2 100 -480.709 0
17      127.751 1 2 100 -480.709 6.06047
18      127.751 1 2 100 -480.709 5.83775
19      127.751 1 2 100 -480.709 5.61503
20      127.751 1 2 100 -480.709 5.39232
21      127.751 1 2 100 -474.546 0
22      127.751 1 2 100 -474.546 1.71343
23      127.751 1 2 100 -474.546 3.42685
24      127.751 1 2 100 -474.546 5.14028
25      127.751 1 2 100 -474.546 0.57052
26      127.751 1 2 100 -468.383 0
27      127.751 1 2 100 -468.383 3.64957
28      127.751 1 2 100 -468.383 1.01595
29      127.751 1 2 100 -468.383 4.66552
30      127.751 1 2 100 -468.383 2.03191
31      127.751 1 2 100 -462.22 0
32      127.751 1 2 100 -462.22 5.58571
33      127.751 1 2 100 -462.22 4.88824
34      127.751 1 2 100 -462.22 4.19077
35      127.751 1 2 100 -462.22 3.49329
36      127.751 1 2 100 -456.057 0
37      127.751 1 2 100 -456.057 1.23867
38      127.751 1 2 100 -456.057 2.47734
39      127.751 1 2 100 -456.057 3.71601
40      127.751 1 2 100 -456.057 4.95468
41      127.751 1 2 100 -449.894 0
42      127.751 1 2 100 -449.894 3.17481
43      127.751 1 2 100 -449.894 0.0664415
44      127.751 1 2 100 -449.894 3.24125
45      127.751 1 2 100 -449.894 0.132883
46      127.751 1 2 100 -443.731 0
47      127.751 1 2 100 -443.731 5.11096
48      127.751 1 2 100 -443.731 3.93873
49      127.751 1 2 100 -443.731 2.7665
50      127.751 1 2 100 -443.731 1.59427
51      127.751 1 2 100 -437.568 0
52      127.751 1 2 100 -437.568 0.763914
53      127.751 1 2 100 -437.568 1.52783
54      127.751 1 2 100 -437.568 2.29174
55      127.751 1 2 100 -437.568 3.05566
56      127.751 1 2 100 -431.405 0
57      127.751 1 2 100 -431.405 2.70006
58      127.751 1 2 100 -431.405 5.40012
59      127.751 1 2 100 -431.405 1.81699
60      127.751 1 2 100 -431.405 4.51704
61      127.751 1 2 100 -425.243 0
62      127.751 1 2 100 -425.243 4.6362
63      127.751 1 2 100 -425.243 2.98922
64      127.751 1 2 100 -425.243 1.34223
65      127.751 1 2 100 -425.243 5.97843
66      127.751 1 2 100 -419.08 0
67      127.751 1 2 100 -419.08 0.289158
68      127.751 1 2 100 -419.08 0.578317
69      127.751 1 2 100 -419.08 0.867475
70      127.751 1 2 100 -419.08 1.15663
71      127.751 1 2 100 -412.917 0
72      127.751 1 2 100 -412.917 2.2253
73      127.751 1 2 100 -412.917 4.4506
74      127.751 1 2 100 -412.917 0.39272
75      127.751 1 2 100 -412.917 2.61802
76      127.751 1 2 100 -406.754 0
77      127.751 1 2 100 -406.754 4.16144
78      127.751 1 2 100 -406.754 2.0397
79      127.751 1 2 100 -406.754 6.20115
80      127.751 1 2 100 -406.754 4.07941
81      127.751 1 2 100 -400.591 0
82      127.751 1 2 100 -400.591 6.09759
83      127.751 1 2 100 -400.591 5.91199
84      127.751 1 2 100 -400.591 5.72639
85      127.751 1 2 100 -400.591 5.5408
86      127.751 1 2 100 -394.428 0
87      127.751 1 2 100 -394.428 1.75055
88      127.751 1 2 100 -394.428 3.50109
89      127.751 1 2 100 -394.428 5.25164
90      127.751 1 2 100 -394.428 0.718997
91      127.751 1 2 100 -388.265 0
92      127.751 1 2 100 -388.265 3.68669
93      127.751 1 2 100 -388.265 1.09019
94      127.751 1 2 100 -388.265 4.77688
95      127.751 1 2 100 -388.265 2.18038
96      127.751 1 2 100 -382.102 0
97      127.751 1 2 100 -382.102 5.62283
98      127.751 1 2 100 -382.102 4.96248
99      127.751 1 2 100 -382.102 4.30213
100      127.751 1 2 100 -382.102 3.64177
101      127.751 1 2 100 -375.939 0
102      127.751 1 2 100 -375.939 1.27579
103      127.751 1 2 100 -375.939 2.55158
104      127.751 1 2 100 -375.939 3.82737
105      127.751 1 2 100 -375.939 5.10316
106      127.751 1 2 100 -369.776 0
107      127.751 1 2 100 -369.776 3.21193
108      127.751 1 2 100 -369.776 0.140681
109      127.751 1 2 100 -369.776 3.35261
110      127.751 1 2 100 -369.776 0.281361
111      127.751 1 2 100 -363.613 0
112      127.751 1 2 100 -363.613 5.14808
113      127.751 1 2 100 -363.613 4.01297
114      127.751 1 2 100 -363.613 2.87786
115      127.751 1 2 100 -363.613 1.74275
116      127.751 1 2 100 -357.45 0
117      127.751 1 2 100 -357.45 0.801034
118      127.751 1 2 100 -357.45 1.60207
119      127.751 1 2 100 -357.45 2.4031
120      127.751 1 2 100 -357.45 3.20414
121      127.751 1 2 100 -351.287 0
122      127.751 1 2 100 -351.287 2.73718
123      127.751 1 2 100 -351.287 5.47435
124      127.751 1 2 100 -351.287 1.92835
125      127.751 1 2 100 -351.287 4.66552
126      127.751 1 2 100 -345.124 0
127      127.751 1 2 100 -345.124 4.67332
128      127.751 1 2 100 -345.124 3.06345
129      127.751 1 2 100 -345.124 1.45359
130      127.751 1 2 100 -345.124 6.12691
131      127.751 1 2 100 -338.961 0
132      127.751 1 2 100 -338.961 0.326278
133      127.751 1 2 100 -338.961 0.652556
134      127.751 1 2 100 -338.961 0.978834
135      127.751 1 2 100 -338.961 1.30511
136      127.751 1 2 100 -332.798 0
137      127.751 1 2 100 -332.798 2.26242
138      127.751 1 2 100 -332.798 4.52484
139      127.751 1 2 100 -332.798 0.504078
140      127.751 1 2 100 -332.798 2.7665
141      127.751 1 2 100 -326.636 0
142      127.751 1 2 100 -326.636 4.19856
143      127.751 1 2 100 -326.636 2.11394
144      127.751 1 2 100 -326.636 0.0293221
145      127.751 1 2 100 -326.636 4.22789
146      127.751 1 2 100 -320.473 0
147      127.751 1 2 100 -320.473 6.13471
148      127.751 1 2 100 -320.473 5.98623
149      127.751 1 2 100 -320.473 5.83775
150      127.751 1 2 100 -320.473 5.68927
151      127.751 1 2 100 -314.31 0
152      127.751 1 2 100 -314.31 1.78767
153      127.751 1 2 100 -314.31 3.57533
154      127.751 1 2 100 -314.31 5.363
155      127.751 1 2 100 -314.31 0.867475
156      127.751 1 2 100 -308.147 0
157      127.751 1 2 100 -308.147 3.72381
158      127.751 1 2 100 -308.147 1.16443
159      127.751 1 2 100 -308.147 4.88824
160      127.751 1 2 100 -308.147 2.32886
161      127.751 1 2 100 -301.984 0
162      127.751 1 2 100 -301.984 5.65995
163      127.751 1 2 100 -301.984 5.03672
164      127.751 1 2 100 -301.984 4.41348
165      127.751 1 2 100 -301.984 3.79025
166      127.751 1 2 100 -295.821 0
167      127.751 1 2 100 -295.821 1.31291
168      127.751 1 2 100 -295.821 2.62582
169      127.751 1 2 100 -295.821 3.93873
170      127.751 1 2 100 -295.821 5.25164
171      127.751 1 2 100 -289.658 0
172      127.751 1 2 100 -289.658 3.24905
173      127.751 1 2 100 -289.658 0.214919
174      127.751 1 2 100 -289.658 3.46397
175      127.751 1 2 100 -289.658 0.429839
176      127.751 1 2 100 -283.495 0
177      127.751 1 2 100 -283.495 5.1852
178      127.751 1 2 100 -283.495 4.08721
179      127.751 1 2 100 -283.495 2.98922
180      127.751 1 2 100 -283.495 1.89123
181      127.751 1 2 100 -277.332 0
182      127.751 1 2 100 -277.332 0.838153
183      127.751 1 2 100 -277.332 1.67631
184      127.751 1 2 100 -277.332 2.51446
185      127.751 1 2 100 -277.332 3.35261
186      127.751 1 2 100 -271.169 0
187      127.751 1 2 100 -271.169 2.7743
188      127.751 1 2 100 -271.169 5.54859
189      127.751 1 2 100 -271.169 2.0397
190      127.751 1 2 100 -271.169 4.814
191      127.751 1 2 100 -265.006 0
192      127.751 1 2 100 -265.006 4.71044
193      127.751 1 2 100 -265.006 3.13769
194      127.751 1 2 100 -265.006 1.56495
195      127.751 1 2 100 -265.006 6.27539
196      127.751 1 2 100 -258.843 0
197      127.751 1 2 100 -258.843 0.363397
198      127.751 1 2 100 -258.843 0.726795
199      127.751 1 2 100 -258.843 1.09019
200      127.751 1 2 100 -258.843 1.45359
201      127.751 1 2 100 -252.68 0
202      127.751 1 2 100 -252.68 2.29954
203      127.751 1 2 100 -252.68 4.59908
204      127.751 1 2 100 -252.68 0.615436
205      127.751 1 2 100 -252.68 2.91498
206      127.751 1 2 100 -246.517 0
207      127.751 1 2 100 -246.517 4.23568
208      127.751 1 2 100 -246.517 2.18818
209      127.751 1 2 100 -246.517 0.140681
210      127.751 1 2 100 -246.517 4.37636
211      127.751 1 2 100 -240.354 0
212      127.751 1 2 100 -240.354 6.17183
213      127.751 1 2 100 -240.354 6.06047
214      127.751 1 2 100 -240.354 5.94911
215      127.751 1 2 100 -240.354 5.83775
216      127.751 1 2 100 -234.192 0
217      127.751 1 2 100 -234.192 1.82478
218      127.751 1 2 100 -234.192 3.64957
219      127.751 1 2 100 -234.192 5.47435
220      127.751 1 2 100 -234.192 1.01595
221      127.751 1 2 100 -228.029 0
222      127.751 1 2 100 -228.029 3.76093
223      127.751 1 2 100 -228.029 1.23867
224      127.751 1 2 100 -228.029 4.9996
225      127.751 1 2 100 -228.029 2.47734
226      127.751 1 2 100 -221.866 0
227      127.751 1 2 100 -221.866 5.69707
228      127.751 1 2 100 -221.866 5.11096
229      127.751 1 2 100 -221.866 4.52484
230      127.751 1 2 100 -221.866 3.93873
231      127.751 1 2 100 -215.703 0
232      127.751 1 2 100 -215.703 1.35003
233      127.751 1 2 100 -215.703 2.70006
234      127.751 1 2 100 -215.703 4.05009
235      127.751 1 2 100 -215.703 5.40012
236      127.751 1 2 100 -209.54 0
237      127.751 1 2 100 -209.54 3.28617
238      127.751 1 2 100 -209.54 0.289158
239      127.751 1 2 100 -209.54 3.57533
240      127.751 1 2 100 -209.54 0.578317
241      127.751 1 2 100 -203.377 0
242      127.751 1 2 100 -203.377 5.22232
243      127.751 1 2 100 -203.377 4.16144
244      127.751 1 2 100 -203.377 3.10057
245      127.751 1 2 100 -203.377 2.0397
246      127.751 1 2 100 -197.214 0
247      127.751 1 2 100 -197.214 0.875273
248      127.751 1 2 100 -197.214 1.75055
249      127.751 1 2 100 -197.214 2.62582
250      127.751 1 2 100 -197.214 3.50109
251      127.751 1 2 100 -191.051 0
252      127.751 1 2 100 -191.051 2.81142
253      127.751 1 2 100 -191.051 5.62283
254      127.751 1 2 100 -191.051 2.15106
255      127.751 1 2 100 -191.051 4.96248
256      127.751 1 2 100 -184.888 0
257      127.751 1 2 100 -184.888 4.74756
258      127.751 1 2 100 -184.888 3.21193
259      127.751 1 2 100 -184.888 1.67631
260      127.751 1 2 100 -184.888 0.140681
261      127.751 1 2 100 -178.725 0
262      127.751 1 2 100 -178.725 0.400517
263      127.751 1 2 100 -178.725 0.801034
264      127.751 1 2 100 -178.725 1.20155
265      127.751 1 2 100 -178.725 1.60207
266      127.751 1 2 100 -172.562 0
267      127.751 1 2 100 -172.562 2.33666
268      127.751 1 2 100 -172.562 4.67332
269      127.751 1 2 100 -172.562 0.726795
270      127.751 1 2 100 -172.562 3.06345
271      127.751 1 2 100 -166.399 0
272      127.751 1 2 100 -166.399 4.2728
273      127.751 1 2 100 -166.399 2.26242
274      127.751 1 2 100 -166.399 0.252039
275      127.751 1 2 100 -166.399 4.52484
276      127.751 1 2 100 -160.236 0
277      127.751 1 2 100 -160.236 6.20895
278      127.751 1 2 100 -160.236 6.13471
279      127.751 1 2 100 -160.236 6.06047
280      127.751 1 2 100 -160.236 5.98623
281      127.751 1 2 100 -154.073 0
282      127.751 1 2 100 -154.073 1.8619
283      127.751 1 2 100 -154.073 3.72381
284      127.751 1 2 100 -154.073 5.58571
285      127.751 1 2 100 -154.073 1.16443
286      127.751 1 2 100 -147.91 0
287      127.751 1 2 100 -147.91 3.79805
288      127.751 1 2 100 -147.91 1.31291
289      127.751 1 2 100 -147.91 5.11096
290      127.751 1 2 100 -147.91 2.62582
291      127.751 1 2 100 -141.748 0
292      127.751 1 2 100 -141.748 5.73419
293      127.751 1 2 100 -141.748 5.1852
294      127.751 1 2 100 -141.748 4.6362
295      127.751 1 2 100 -141.748 4.08721
296      127.751 1 2 100 -135.585 0
297      127.751 1 2 100 -135.585 1.38715
298      127.751 1 2 100 -135.585 2.7743
299      127.751 1 2 100 -135.585 4.16144
300      127.751 1 2 100 -135.585 5.54859
301      127.751 1 2 100 -129.422 0
302      127.751 1 2 100 -129.422 3.32329
303      127.751 1 2 100 -129.422 0.363397
304      127.751 1 2 100 -129.422 3.68669
305      127.751 1 2 100 -129.422 0.726795
306      127.751 1 2 100 -123.259 0
307      127.751 1 2 100 -123.259 5.25943
308      127.751 1 2 100 -123.259 4.23568
309      127.751 1 2 100 -123.259 3.21193
310      127.751 1 2 100 -123.259 2.18818
311      127.751 1 2 100 -117.096 0
312      127.751 1 2 100 -117.096 0.912392
313      127.751 1 2 100 -117.096 1.82478
314      127.751 1 2 100 -117.096 2.73718
315      127.751 1 2 100 -117.096 3.64957
316      127.751 1 2 100 -110.933 0
317      127.751 1 2 100 -110.933 2.84854
318      127.751 1 2 100 -110.933 5.69707
319      127.751 1 2 100 -110.933 2.26242
320      127.751 1 2 100 -110.933 5.11096
321      127.751 1 2 100 -104.77 0
322      127.751 1 2 100 -104.77 4.78468
323      127.751 1 2 100 -104.77 3.28617
324      127.751 1 2 100 -104.77 1.78767
325      127.751 1 2 100 -104.77 0.289158
326      127.751 1 2 100 -98.607 0
327      127.751 1 2 100 -98.607 0.437636
328      127.751 1 2 100 -98.607 0.875273
329      127.751 1 2 100 -98.607 1.31291
330      127.751 1 2 100 -98.607 1.75055
331      127.751 1 2 100 -92.444 0
332      127.751 1 2 100 -92.444 2.37378
333      127.751 1 2 100 -92.444 4.74756
334      127.751 1 2 100 -92.444 0.838153
335      127.751 1 2 100 -92.444 3.21193
336      127.751 1 2 100 -86.2811 0
337      127.751 1 2 100 -86.2811 4.30992
338      127.751 1 2 100 -86.2811 2.33666
339      127.751 1 2 100 -86.2811 0.363397
340      127.751 1 2 100 -86.2811 4.67332
341      127.751 1 2 100 -80.1182 0
342      127.751 1 2 100 -80.1182 6.24607
343      127.751 1 2 100 -80.1182 6.20895
344      127.751 1 2 100 -80.1182 6.17183
345      127.751 1 2 100 -80.1182 6.13471
346      127.751 1 2 100 -73.9552 0
347      127.751 1 2 100 -73.9552 1.89902
348      127.751 1 2 100 -73.9552 3.79805
349      127.751 1 2 100 -73.9552 5.69707
350      127.751 1 2 100 -73.9552 1.31291
351      127.751 1 2 100 -67.7923 0
352      127.751 1 2 100 -67.7923 3.83517
353      127.751 1 2 100 -67.7923 1.38715
354      127.751 1 2 100 -67.7923 5.22232
355      127.751 1 2 100 -67.7923 2.7743
356      127.751 1 2 100 -61.6294 0
357      127.751 1 2 100 -61.6294 5.77131
358      127.751 1 2 100 -61.6294 5.25943
359      127.751 1 2 100 -61.6294 4.74756
360      127.751 1 2 100 -61.6294 4.23568
361      127.751 1 2 100 -55.4664 0
362      127.751 1 2 100 -55.4664 1.42427
363      127.751 1 2 100 -55.4664 2.84854
364      127.751 1 2 100 -55.4664 4.2728
365      127.751 1 2 100 -55.4664 5.69707
366      127.751 1 2 100 -49.3035 0
367      127.751 1 2 100 -49.3035 3.36041
368      127.751 1 2 100 -49.3035 0.437636
369      127.751 1 2 100 -49.3035 3.79805
370      127.751 1 2 100 -49.3035 0.875273
371      127.751 1 2 100 -43.1405 0
372      127.751 1 2 100 -43.1405 5.29655
373      127.751 1 2 100 -43.1405 4.30992
374      127.751 1 2 100 -43.1405 3.32329
375      127.751 1 2 100 -43.1405 2.33666
376      127.751 1 2 100 -36.9776 0
377      127.751 1 2 100 -36.9776 0.949512
378      127.751 1 2 100 -36.9776 1.89902
379      127.751 1 2 100 -36.9776 2.84854
380      127.751 1 2 100 -36.9776 3.79805
381      127.751 1 2 100 -30.8147 0
382      127.751 1 2 100 -30.8147 2.88565
383      127.751 1 2 100 -30.8147 5.77131
384      127.751 1 2 100 -30.8147 2.37378
385      127.751 1 2 100 -30.8147 5.25943
386      127.751 1 2 100 -24.6517 0
387      127.751 1 2 100 -24.6517 4.8218
388      127.751 1 2 100 -24.6517 3.36041
389      127.751 1 2 100 -24.6517 1.89902
390      127.751 1 2 100 -24.6517 0.437636
391      127.751 1 2 100 -18.4888 0
392      127.751 1 2 100 -18.4888 0.474756
393      127.751 1 2 100 -18.4888 0.949512
394      127.751 1 2 100 -18.4888 1.42427
395      127.751 1 2 100 -18.4888 1.89902
396      127.751 1 2 100 -12.3259 0
397      127.751 1 2 100 -12.3259 2.4109
398      127.751 1 2 100 -12.3259 4.8218
399      127.751 1 2 100 -12.3259 0.949512
400      127.751 1 2 100 -12.3259 3.36041
401      127.751 1 2 100 -6.16293 0
402      127.751 1 2 100 -6.16293 4.34704
403      127.751 1 2 100 -6.16293 2.4109
404      127.751 1 2 100 -6.16293 0.474756
405      127.751 1 2 100 -6.16293 4.8218
406      127.751 1 2 100 0 0
407      127.751 1 2 100 6.16293 0
408      127.751 1 2 100 6.16293 1.93614
409      127.751 1 2 100 6.16293 3.87229
410      127.751 1 2 100 6.16293 5.80843
411      127.751 1 2 100 6.16293 1.46139
412      127.751 1 2 100 12.3259 0
413      127.751 1 2 100 12.3259 3.87229
414      127.751 1 2 100 12.3259 1.46139
415      127.751 1 2 100 12.3259 5.33367
416      127.751 1 2 100 12.3259 2.92277
417      127.751 1 2 100 18.4888 0
418      127.751 1 2 100 18.4888 5.80843
419      127.751 1 2 100 18.4888 5.33367
420      127.751 1 2 100 18.4888 4.85892
421      127.751 1 2 100 18.4888 4.38416
422      127.751 1 2 100 24.6517 0
423      127.751 1 2 100 24.6517 1.46139
424      127.751 1 2 100 24.6517 2.92277
425      127.751 1 2 100 24.6517 4.38416
426      127.751 1 2 100 24.6517 5.84555
427      127.751 1 2 100 30.8147 0
428      127.751 1 2 100 30.8147 3.39753
429      127.751 1 2 100 30.8147 0.511875
430      127.751 1 2 100 30.8147 3.90941
431      127.751 1 2 100 30.8147 1.02375
432      127.751 1 2 100 36.9776 0
433      127.751 1 2 100 36.9776 5.33367
434      127.751 1 2 100 36.9776 4.38416
435      127.751 1 2 100 36.9776 3.43465
436      127.751 1 2 100 36.9776 2.48514
437      127.751 1 2 100 43.1405 0
438      127.751 1 2 100 43.1405 0.986631
439      127.751 1 2 100 43.1405 1.97326
440      127.751 1 2 100 43.1405 2.95989
441      127.751 1 2 100 43.1405 3.94653
442      127.751 1 2 100 49.3035 0
443      127.751 1 2 100 49.3035 2.92277
444      127.751 1 2 100 49.3035 5.84555
445      127.751 1 2 100 49.3035 2.48514
446      127.751 1 2 100 49.3035 5.40791
447      127.751 1 2 100 55.4664 0
448      127.751 1 2 100 55.4664 4.85892
449      127.751 1 2 100 55.4664 3.43465
450      127.751 1 2 100 55.4664 2.01038
451      127.751 1 2 100 55.4664 0.586114
452      127.751 1 2 100 61.6294 0
453      127.751 1 2 100 61.6294 0.511875
454      127.751 1 2 100 61.6294 1.02375
455      127.751 1 2 100 61.6294 1.53563
456      127.751 1 2 100 61.6294 2.0475
457      127.751 1 2 100 67.7923 0
458      127.751 1 2 100 67.7923 2.44802
459      127.751 1 2 100 67.7923 4.89604
460      127.751 1 2 100 67.7923 1.06087
461      127.751 1 2 100 67.7923 3.50889
462      127.751 1 2 100 73.9552 0
463      127.751 1 2 100 73.9552 4.38416
464      127.751 1 2 100 73.9552 2.48514
465      127.751 1 2 100 73.9552 0.586114
466      127.751 1 2 100 73.9552 4.97028
467      127.751 1 2 100 80.1182 0
468      127.751 1 2 100 80.1182 0.0371195
469      127.751 1 2 100 80.1182 0.074239
470      127.751 1 2 100 80.1182 0.111358
471      127.751 1 2 100 80.1182 0.148478
472      127.751 1 2 100 86.2811 0
473      127.751 1 2 100 86.2811 1.97326
474      127.751 1 2 100 86.2811 3.94653
475      127.751 1 2 100 86.2811 5.91979
476      127.751 1 2 100 86.2811 1.60987
477      127.751 1 2 100 92.444 0
478      127.751 1 2 100 92.444 3.90941
479      127.751 1 2 100 92.444 1.53563
480      127.751 1 2 100 92.444 5.44503
481      127.751 1 2 100 92.444 3.07125
482      127.751 1 2 100 98.607 0
483      127.751 1 2 100 98.607 5.84555
484      127.751 1 2 100 98.607 5.40791
485      127.751 1 2 100 98.607 4.97028
486      127.751 1 2 100 98.607 4.53264
487      127.751 1 2 100 104.77 0
488      127.751 1 2 100 104.77 1.49851
489      127.751 1 2 100 104.77 2.99701
490      127.751 1 2 100 104.77 4.49552
491      127.751 1 2 100 104.77 5.99403
492      127.751 1 2 100 110.933 0
493      127.751 1 2 100 110.933 3.43465
494      127.751 1 2 100 110.933 0.586114
495      127.751 1 2 100 110.933 4.02076
496      127.751 1 2 100 110.933 1.17223
