# Pulseq sequence file
# Created by MATLAB mr toolbox

# Created for Pulseq-CEST
# https://pulseq-cest.github.io/
# Created by: JRS
# Created at: 13-Jul-2023 12:27:54

[VERSION]
major 1
minor 3
revision 1

[DEFINITIONS]
B0 2.89500052 
B1pa 1.78 
B1rms 1.8 
DCsat 0.909090909 
FREQ 123.2587 
M0_offset -300 
Trec 3.5 
Trec_M0 3.5 
Tsat 0.545 
n_pulses 10 
num_meas 162 
offsets_ppm -300 -4 -3.95 -3.9 -3.85 -3.8 -3.75 -3.7 -3.65 -3.6 -3.55 -3.5 -3.45 -3.4 -3.35 -3.3 -3.25 -3.2 -3.15 -3.1 -3.05 -3 -2.95 -2.9 -2.85 -2.8 -2.75 -2.7 -2.65 -2.6 -2.55 -2.5 -2.45 -2.4 -2.35 -2.3 -2.25 -2.2 -2.15 -2.1 -2.05 -2 -1.95 -1.9 -1.85 -1.8 -1.75 -1.7 -1.65 -1.6 -1.55 -1.5 -1.45 -1.4 -1.35 -1.3 -1.25 -1.2 -1.15 -1.1 -1.05 -1 -0.95 -0.9 -0.85 -0.8 -0.75 -0.7 -0.65 -0.6 -0.55 -0.5 -0.45 -0.4 -0.35 -0.3 -0.25 -0.2 -0.15 -0.1 -0.05 0 0.05 0.1 0.15 0.2 0.25 0.3 0.35 0.4 0.45 0.5 0.55 0.6 0.65 0.7 0.75 0.8 0.85 0.9 0.95 1 1.05 1.1 1.15 1.2 1.25 1.3 1.35 1.4 1.45 1.5 1.55 1.6 1.65 1.7 1.75 1.8 1.85 1.9 1.95 2 2.05 2.1 2.15 2.2 2.25 2.3 2.35 2.4 2.45 2.5 2.55 2.6 2.65 2.7 2.75 2.8 2.85 2.9 2.95 3 3.05 3.1 3.15 3.2 3.25 3.3 3.35 3.4 3.45 3.5 3.55 3.6 3.65 3.7 3.75 3.8 3.85 3.9 3.95 4 
seq_id_string  
spoiling 1 
td 0.005 
tp 0.05 

# Format of blocks:
#  #  D RF  GX  GY  GZ ADC EXT
[BLOCKS]
   1  1  0   0   0   0  0  0
   2  0  1   0   0   0  0  0
   3  2  0   0   0   0  0  0
   4  0  2   0   0   0  0  0
   5  2  0   0   0   0  0  0
   6  0  3   0   0   0  0  0
   7  2  0   0   0   0  0  0
   8  0  4   0   0   0  0  0
   9  2  0   0   0   0  0  0
  10  0  5   0   0   0  0  0
  11  2  0   0   0   0  0  0
  12  0  6   0   0   0  0  0
  13  2  0   0   0   0  0  0
  14  0  7   0   0   0  0  0
  15  2  0   0   0   0  0  0
  16  0  8   0   0   0  0  0
  17  2  0   0   0   0  0  0
  18  0  9   0   0   0  0  0
  19  2  0   0   0   0  0  0
  20  0 10   0   0   0  0  0
  21  0  0   1   1   1  0  0
  22  0  0   0   0   0  1  0
  23  1  0   0   0   0  0  0
  24  0 11   0   0   0  0  0
  25  2  0   0   0   0  0  0
  26  0 12   0   0   0  0  0
  27  2  0   0   0   0  0  0
  28  0 13   0   0   0  0  0
  29  2  0   0   0   0  0  0
  30  0 14   0   0   0  0  0
  31  2  0   0   0   0  0  0
  32  0 15   0   0   0  0  0
  33  2  0   0   0   0  0  0
  34  0 16   0   0   0  0  0
  35  2  0   0   0   0  0  0
  36  0 17   0   0   0  0  0
  37  2  0   0   0   0  0  0
  38  0 18   0   0   0  0  0
  39  2  0   0   0   0  0  0
  40  0 19   0   0   0  0  0
  41  2  0   0   0   0  0  0
  42  0 20   0   0   0  0  0
  43  0  0   1   1   1  0  0
  44  0  0   0   0   0  1  0
  45  1  0   0   0   0  0  0
  46  0 21   0   0   0  0  0
  47  2  0   0   0   0  0  0
  48  0 22   0   0   0  0  0
  49  2  0   0   0   0  0  0
  50  0 23   0   0   0  0  0
  51  2  0   0   0   0  0  0
  52  0 24   0   0   0  0  0
  53  2  0   0   0   0  0  0
  54  0 25   0   0   0  0  0
  55  2  0   0   0   0  0  0
  56  0 26   0   0   0  0  0
  57  2  0   0   0   0  0  0
  58  0 27   0   0   0  0  0
  59  2  0   0   0   0  0  0
  60  0 28   0   0   0  0  0
  61  2  0   0   0   0  0  0
  62  0 29   0   0   0  0  0
  63  2  0   0   0   0  0  0
  64  0 30   0   0   0  0  0
  65  0  0   1   1   1  0  0
  66  0  0   0   0   0  1  0
  67  1  0   0   0   0  0  0
  68  0 31   0   0   0  0  0
  69  2  0   0   0   0  0  0
  70  0 32   0   0   0  0  0
  71  2  0   0   0   0  0  0
  72  0 33   0   0   0  0  0
  73  2  0   0   0   0  0  0
  74  0 34   0   0   0  0  0
  75  2  0   0   0   0  0  0
  76  0 35   0   0   0  0  0
  77  2  0   0   0   0  0  0
  78  0 36   0   0   0  0  0
  79  2  0   0   0   0  0  0
  80  0 37   0   0   0  0  0
  81  2  0   0   0   0  0  0
  82  0 38   0   0   0  0  0
  83  2  0   0   0   0  0  0
  84  0 39   0   0   0  0  0
  85  2  0   0   0   0  0  0
  86  0 40   0   0   0  0  0
  87  0  0   1   1   1  0  0
  88  0  0   0   0   0  1  0
  89  1  0   0   0   0  0  0
  90  0 41   0   0   0  0  0
  91  2  0   0   0   0  0  0
  92  0 42   0   0   0  0  0
  93  2  0   0   0   0  0  0
  94  0 43   0   0   0  0  0
  95  2  0   0   0   0  0  0
  96  0 44   0   0   0  0  0
  97  2  0   0   0   0  0  0
  98  0 45   0   0   0  0  0
  99  2  0   0   0   0  0  0
 100  0 46   0   0   0  0  0
 101  2  0   0   0   0  0  0
 102  0 47   0   0   0  0  0
 103  2  0   0   0   0  0  0
 104  0 48   0   0   0  0  0
 105  2  0   0   0   0  0  0
 106  0 49   0   0   0  0  0
 107  2  0   0   0   0  0  0
 108  0 50   0   0   0  0  0
 109  0  0   1   1   1  0  0
 110  0  0   0   0   0  1  0
 111  1  0   0   0   0  0  0
 112  0 51   0   0   0  0  0
 113  2  0   0   0   0  0  0
 114  0 52   0   0   0  0  0
 115  2  0   0   0   0  0  0
 116  0 53   0   0   0  0  0
 117  2  0   0   0   0  0  0
 118  0 54   0   0   0  0  0
 119  2  0   0   0   0  0  0
 120  0 55   0   0   0  0  0
 121  2  0   0   0   0  0  0
 122  0 56   0   0   0  0  0
 123  2  0   0   0   0  0  0
 124  0 57   0   0   0  0  0
 125  2  0   0   0   0  0  0
 126  0 58   0   0   0  0  0
 127  2  0   0   0   0  0  0
 128  0 59   0   0   0  0  0
 129  2  0   0   0   0  0  0
 130  0 60   0   0   0  0  0
 131  0  0   1   1   1  0  0
 132  0  0   0   0   0  1  0
 133  1  0   0   0   0  0  0
 134  0 61   0   0   0  0  0
 135  2  0   0   0   0  0  0
 136  0 62   0   0   0  0  0
 137  2  0   0   0   0  0  0
 138  0 63   0   0   0  0  0
 139  2  0   0   0   0  0  0
 140  0 64   0   0   0  0  0
 141  2  0   0   0   0  0  0
 142  0 65   0   0   0  0  0
 143  2  0   0   0   0  0  0
 144  0 66   0   0   0  0  0
 145  2  0   0   0   0  0  0
 146  0 67   0   0   0  0  0
 147  2  0   0   0   0  0  0
 148  0 68   0   0   0  0  0
 149  2  0   0   0   0  0  0
 150  0 69   0   0   0  0  0
 151  2  0   0   0   0  0  0
 152  0 70   0   0   0  0  0
 153  0  0   1   1   1  0  0
 154  0  0   0   0   0  1  0
 155  1  0   0   0   0  0  0
 156  0 71   0   0   0  0  0
 157  2  0   0   0   0  0  0
 158  0 72   0   0   0  0  0
 159  2  0   0   0   0  0  0
 160  0 73   0   0   0  0  0
 161  2  0   0   0   0  0  0
 162  0 74   0   0   0  0  0
 163  2  0   0   0   0  0  0
 164  0 75   0   0   0  0  0
 165  2  0   0   0   0  0  0
 166  0 76   0   0   0  0  0
 167  2  0   0   0   0  0  0
 168  0 77   0   0   0  0  0
 169  2  0   0   0   0  0  0
 170  0 78   0   0   0  0  0
 171  2  0   0   0   0  0  0
 172  0 79   0   0   0  0  0
 173  2  0   0   0   0  0  0
 174  0 80   0   0   0  0  0
 175  0  0   1   1   1  0  0
 176  0  0   0   0   0  1  0
 177  1  0   0   0   0  0  0
 178  0 81   0   0   0  0  0
 179  2  0   0   0   0  0  0
 180  0 82   0   0   0  0  0
 181  2  0   0   0   0  0  0
 182  0 83   0   0   0  0  0
 183  2  0   0   0   0  0  0
 184  0 84   0   0   0  0  0
 185  2  0   0   0   0  0  0
 186  0 85   0   0   0  0  0
 187  2  0   0   0   0  0  0
 188  0 86   0   0   0  0  0
 189  2  0   0   0   0  0  0
 190  0 87   0   0   0  0  0
 191  2  0   0   0   0  0  0
 192  0 88   0   0   0  0  0
 193  2  0   0   0   0  0  0
 194  0 89   0   0   0  0  0
 195  2  0   0   0   0  0  0
 196  0 90   0   0   0  0  0
 197  0  0   1   1   1  0  0
 198  0  0   0   0   0  1  0
 199  1  0   0   0   0  0  0
 200  0 91   0   0   0  0  0
 201  2  0   0   0   0  0  0
 202  0 92   0   0   0  0  0
 203  2  0   0   0   0  0  0
 204  0 93   0   0   0  0  0
 205  2  0   0   0   0  0  0
 206  0 94   0   0   0  0  0
 207  2  0   0   0   0  0  0
 208  0 95   0   0   0  0  0
 209  2  0   0   0   0  0  0
 210  0 96   0   0   0  0  0
 211  2  0   0   0   0  0  0
 212  0 97   0   0   0  0  0
 213  2  0   0   0   0  0  0
 214  0 98   0   0   0  0  0
 215  2  0   0   0   0  0  0
 216  0 99   0   0   0  0  0
 217  2  0   0   0   0  0  0
 218  0 100   0   0   0  0  0
 219  0  0   1   1   1  0  0
 220  0  0   0   0   0  1  0
 221  1  0   0   0   0  0  0
 222  0 101   0   0   0  0  0
 223  2  0   0   0   0  0  0
 224  0 102   0   0   0  0  0
 225  2  0   0   0   0  0  0
 226  0 103   0   0   0  0  0
 227  2  0   0   0   0  0  0
 228  0 104   0   0   0  0  0
 229  2  0   0   0   0  0  0
 230  0 105   0   0   0  0  0
 231  2  0   0   0   0  0  0
 232  0 106   0   0   0  0  0
 233  2  0   0   0   0  0  0
 234  0 107   0   0   0  0  0
 235  2  0   0   0   0  0  0
 236  0 108   0   0   0  0  0
 237  2  0   0   0   0  0  0
 238  0 109   0   0   0  0  0
 239  2  0   0   0   0  0  0
 240  0 110   0   0   0  0  0
 241  0  0   1   1   1  0  0
 242  0  0   0   0   0  1  0
 243  1  0   0   0   0  0  0
 244  0 111   0   0   0  0  0
 245  2  0   0   0   0  0  0
 246  0 112   0   0   0  0  0
 247  2  0   0   0   0  0  0
 248  0 113   0   0   0  0  0
 249  2  0   0   0   0  0  0
 250  0 114   0   0   0  0  0
 251  2  0   0   0   0  0  0
 252  0 115   0   0   0  0  0
 253  2  0   0   0   0  0  0
 254  0 116   0   0   0  0  0
 255  2  0   0   0   0  0  0
 256  0 117   0   0   0  0  0
 257  2  0   0   0   0  0  0
 258  0 118   0   0   0  0  0
 259  2  0   0   0   0  0  0
 260  0 119   0   0   0  0  0
 261  2  0   0   0   0  0  0
 262  0 120   0   0   0  0  0
 263  0  0   1   1   1  0  0
 264  0  0   0   0   0  1  0
 265  1  0   0   0   0  0  0
 266  0 121   0   0   0  0  0
 267  2  0   0   0   0  0  0
 268  0 122   0   0   0  0  0
 269  2  0   0   0   0  0  0
 270  0 123   0   0   0  0  0
 271  2  0   0   0   0  0  0
 272  0 124   0   0   0  0  0
 273  2  0   0   0   0  0  0
 274  0 125   0   0   0  0  0
 275  2  0   0   0   0  0  0
 276  0 126   0   0   0  0  0
 277  2  0   0   0   0  0  0
 278  0 127   0   0   0  0  0
 279  2  0   0   0   0  0  0
 280  0 128   0   0   0  0  0
 281  2  0   0   0   0  0  0
 282  0 129   0   0   0  0  0
 283  2  0   0   0   0  0  0
 284  0 130   0   0   0  0  0
 285  0  0   1   1   1  0  0
 286  0  0   0   0   0  1  0
 287  1  0   0   0   0  0  0
 288  0 131   0   0   0  0  0
 289  2  0   0   0   0  0  0
 290  0 132   0   0   0  0  0
 291  2  0   0   0   0  0  0
 292  0 133   0   0   0  0  0
 293  2  0   0   0   0  0  0
 294  0 134   0   0   0  0  0
 295  2  0   0   0   0  0  0
 296  0 135   0   0   0  0  0
 297  2  0   0   0   0  0  0
 298  0 136   0   0   0  0  0
 299  2  0   0   0   0  0  0
[RF]
1      127.751 1 2 100 -36977.6 0
2      127.751 1 2 100 -36977.6 0.750841
3      127.751 1 2 100 -36977.6 1.50168
4      127.751 1 2 100 -36977.6 2.25252
5      127.751 1 2 100 -36977.6 3.00336
6      127.751 1 2 100 -36977.6 3.7542
7      127.751 1 2 100 -36977.6 4.50504
8      127.751 1 2 100 -36977.6 5.25588
9      127.751 1 2 100 -36977.6 6.00673
10      127.751 1 2 100 -36977.6 0.47438
11      127.751 1 2 100 -493.035 0
12      127.751 1 2 100 -493.035 2.18818
13      127.751 1 2 100 -493.035 4.37636
14      127.751 1 2 100 -493.035 0.281361
15      127.751 1 2 100 -493.035 2.46954
16      127.751 1 2 100 -493.035 4.65773
17      127.751 1 2 100 -493.035 0.562722
18      127.751 1 2 100 -493.035 2.7509
19      127.751 1 2 100 -493.035 4.93909
20      127.751 1 2 100 -493.035 0.844083
21      127.751 1 2 100 -486.872 0
22      127.751 1 2 100 -486.872 4.12433
23      127.751 1 2 100 -486.872 1.96547
24      127.751 1 2 100 -486.872 6.08979
25      127.751 1 2 100 -486.872 3.93093
26      127.751 1 2 100 -486.872 1.77207
27      127.751 1 2 100 -486.872 5.8964
28      127.751 1 2 100 -486.872 3.73754
29      127.751 1 2 100 -486.872 1.57868
30      127.751 1 2 100 -486.872 5.703
31      127.751 1 2 100 -480.709 0
32      127.751 1 2 100 -480.709 6.06047
33      127.751 1 2 100 -480.709 5.83775
34      127.751 1 2 100 -480.709 5.61503
35      127.751 1 2 100 -480.709 5.39232
36      127.751 1 2 100 -480.709 5.1696
37      127.751 1 2 100 -480.709 4.94688
38      127.751 1 2 100 -480.709 4.72417
39      127.751 1 2 100 -480.709 4.50145
40      127.751 1 2 100 -480.709 4.27873
41      127.751 1 2 100 -474.546 0
42      127.751 1 2 100 -474.546 1.71343
43      127.751 1 2 100 -474.546 3.42685
44      127.751 1 2 100 -474.546 5.14028
45      127.751 1 2 100 -474.546 0.57052
46      127.751 1 2 100 -474.546 2.28395
47      127.751 1 2 100 -474.546 3.99737
48      127.751 1 2 100 -474.546 5.7108
49      127.751 1 2 100 -474.546 1.14104
50      127.751 1 2 100 -474.546 2.85447
51      127.751 1 2 100 -468.383 0
52      127.751 1 2 100 -468.383 3.64957
53      127.751 1 2 100 -468.383 1.01595
54      127.751 1 2 100 -468.383 4.66552
55      127.751 1 2 100 -468.383 2.03191
56      127.751 1 2 100 -468.383 5.68148
57      127.751 1 2 100 -468.383 3.04786
58      127.751 1 2 100 -468.383 0.414244
59      127.751 1 2 100 -468.383 4.06381
60      127.751 1 2 100 -468.383 1.4302
61      127.751 1 2 100 -462.22 0
62      127.751 1 2 100 -462.22 5.58571
63      127.751 1 2 100 -462.22 4.88824
64      127.751 1 2 100 -462.22 4.19077
65      127.751 1 2 100 -462.22 3.49329
66      127.751 1 2 100 -462.22 2.79582
67      127.751 1 2 100 -462.22 2.09835
68      127.751 1 2 100 -462.22 1.40088
69      127.751 1 2 100 -462.22 0.703403
70      127.751 1 2 100 -462.22 0.00592976
71      127.751 1 2 100 -456.057 0
72      127.751 1 2 100 -456.057 1.23867
73      127.751 1 2 100 -456.057 2.47734
74      127.751 1 2 100 -456.057 3.71601
75      127.751 1 2 100 -456.057 4.95468
76      127.751 1 2 100 -456.057 6.19335
77      127.751 1 2 100 -456.057 1.14884
78      127.751 1 2 100 -456.057 2.38751
79      127.751 1 2 100 -456.057 3.62618
80      127.751 1 2 100 -456.057 4.86485
81      127.751 1 2 100 -449.894 0
82      127.751 1 2 100 -449.894 3.17481
83      127.751 1 2 100 -449.894 0.0664415
84      127.751 1 2 100 -449.894 3.24125
85      127.751 1 2 100 -449.894 0.132883
86      127.751 1 2 100 -449.894 3.3077
87      127.751 1 2 100 -449.894 0.199325
88      127.751 1 2 100 -449.894 3.37414
89      127.751 1 2 100 -449.894 0.265766
90      127.751 1 2 100 -449.894 3.44058
91      127.751 1 2 100 -443.731 0
92      127.751 1 2 100 -443.731 5.11096
93      127.751 1 2 100 -443.731 3.93873
94      127.751 1 2 100 -443.731 2.7665
95      127.751 1 2 100 -443.731 1.59427
96      127.751 1 2 100 -443.731 0.422042
97      127.751 1 2 100 -443.731 5.533
98      127.751 1 2 100 -443.731 4.36077
99      127.751 1 2 100 -443.731 3.18854
100      127.751 1 2 100 -443.731 2.01631
101      127.751 1 2 100 -437.568 0
102      127.751 1 2 100 -437.568 0.763914
103      127.751 1 2 100 -437.568 1.52783
104      127.751 1 2 100 -437.568 2.29174
105      127.751 1 2 100 -437.568 3.05566
106      127.751 1 2 100 -437.568 3.81957
107      127.751 1 2 100 -437.568 4.58349
108      127.751 1 2 100 -437.568 5.3474
109      127.751 1 2 100 -437.568 6.11132
110      127.751 1 2 100 -437.568 0.592044
111      127.751 1 2 100 -431.405 0
112      127.751 1 2 100 -431.405 2.70006
113      127.751 1 2 100 -431.405 5.40012
114      127.751 1 2 100 -431.405 1.81699
115      127.751 1 2 100 -431.405 4.51704
116      127.751 1 2 100 -431.405 0.933917
117      127.751 1 2 100 -431.405 3.63397
118      127.751 1 2 100 -431.405 0.0508467
119      127.751 1 2 100 -431.405 2.7509
120      127.751 1 2 100 -431.405 5.45096
121      127.751 1 2 100 -425.243 0
122      127.751 1 2 100 -425.243 4.6362
123      127.751 1 2 100 -425.243 2.98922
124      127.751 1 2 100 -425.243 1.34223
125      127.751 1 2 100 -425.243 5.97843
126      127.751 1 2 100 -425.243 4.33145
127      127.751 1 2 100 -425.243 2.68446
128      127.751 1 2 100 -425.243 1.03748
129      127.751 1 2 100 -425.243 5.67368
130      127.751 1 2 100 -425.243 4.02669
131      127.751 1 2 100 -419.08 0
132      127.751 1 2 100 -419.08 0.289158
133      127.751 1 2 100 -419.08 0.578317
134      127.751 1 2 100 -419.08 0.867475
135      127.751 1 2 100 -419.08 1.15663
136      127.751 1 2 100 -419.08 1.44579
137      127.751 1 2 100 -419.08 1.73495
138      127.751 1 2 100 -419.08 2.02411
139      127.751 1 2 100 -419.08 2.31327
140      127.751 1 2 100 -419.08 2.60243
141      127.751 1 2 100 -412.917 0
142      127.751 1 2 100 -412.917 2.2253
143      127.751 1 2 100 -412.917 4.4506
144      127.751 1 2 100 -412.917 0.39272
145      127.751 1 2 100 -412.917 2.61802
146      127.751 1 2 100 -412.917 4.84332
147      127.751 1 2 100 -412.917 0.785439
148      127.751 1 2 100 -412.917 3.01074
149      127.751 1 2 100 -412.917 5.23604
150      127.751 1 2 100 -412.917 1.17816
151      127.751 1 2 100 -406.754 0
152      127.751 1 2 100 -406.754 4.16144
153      127.751 1 2 100 -406.754 2.0397
154      127.751 1 2 100 -406.754 6.20115
155      127.751 1 2 100 -406.754 4.07941
156      127.751 1 2 100 -406.754 1.95767
157      127.751 1 2 100 -406.754 6.11911
158      127.751 1 2 100 -406.754 3.99737
159      127.751 1 2 100 -406.754 1.87563
160      127.751 1 2 100 -406.754 6.03708
161      127.751 1 2 100 -400.591 0
162      127.751 1 2 100 -400.591 6.09759
163      127.751 1 2 100 -400.591 5.91199
164      127.751 1 2 100 -400.591 5.72639
165      127.751 1 2 100 -400.591 5.5408
166      127.751 1 2 100 -400.591 5.3552
167      127.751 1 2 100 -400.591 5.1696
168      127.751 1 2 100 -400.591 4.984
169      127.751 1 2 100 -400.591 4.79841
170      127.751 1 2 100 -400.591 4.61281
171      127.751 1 2 100 -394.428 0
172      127.751 1 2 100 -394.428 1.75055
173      127.751 1 2 100 -394.428 3.50109
174      127.751 1 2 100 -394.428 5.25164
175      127.751 1 2 100 -394.428 0.718997
176      127.751 1 2 100 -394.428 2.46954
177      127.751 1 2 100 -394.428 4.22009
178      127.751 1 2 100 -394.428 5.97063
179      127.751 1 2 100 -394.428 1.43799
180      127.751 1 2 100 -394.428 3.18854
181      127.751 1 2 100 -388.265 0
182      127.751 1 2 100 -388.265 3.68669
183      127.751 1 2 100 -388.265 1.09019
184      127.751 1 2 100 -388.265 4.77688
185      127.751 1 2 100 -388.265 2.18038
186      127.751 1 2 100 -388.265 5.86707
187      127.751 1 2 100 -388.265 3.27058
188      127.751 1 2 100 -388.265 0.674081
189      127.751 1 2 100 -388.265 4.36077
190      127.751 1 2 100 -388.265 1.76427
191      127.751 1 2 100 -382.102 0
192      127.751 1 2 100 -382.102 5.62283
193      127.751 1 2 100 -382.102 4.96248
194      127.751 1 2 100 -382.102 4.30213
195      127.751 1 2 100 -382.102 3.64177
196      127.751 1 2 100 -382.102 2.98142
197      127.751 1 2 100 -382.102 2.32107
198      127.751 1 2 100 -382.102 1.66071
199      127.751 1 2 100 -382.102 1.00036
200      127.751 1 2 100 -382.102 0.340005
201      127.751 1 2 100 -375.939 0
202      127.751 1 2 100 -375.939 1.27579
203      127.751 1 2 100 -375.939 2.55158
204      127.751 1 2 100 -375.939 3.82737
205      127.751 1 2 100 -375.939 5.10316
206      127.751 1 2 100 -375.939 0.0957636
207      127.751 1 2 100 -375.939 1.37155
208      127.751 1 2 100 -375.939 2.64734
209      127.751 1 2 100 -375.939 3.92313
210      127.751 1 2 100 -375.939 5.19892
211      127.751 1 2 100 -369.776 0
212      127.751 1 2 100 -369.776 3.21193
213      127.751 1 2 100 -369.776 0.140681
214      127.751 1 2 100 -369.776 3.35261
215      127.751 1 2 100 -369.776 0.281361
216      127.751 1 2 100 -369.776 3.49329
217      127.751 1 2 100 -369.776 0.422042
218      127.751 1 2 100 -369.776 3.63397
219      127.751 1 2 100 -369.776 0.562722
220      127.751 1 2 100 -369.776 3.77465
221      127.751 1 2 100 -363.613 0
222      127.751 1 2 100 -363.613 5.14808
223      127.751 1 2 100 -363.613 4.01297
224      127.751 1 2 100 -363.613 2.87786
225      127.751 1 2 100 -363.613 1.74275
226      127.751 1 2 100 -363.613 0.607639
227      127.751 1 2 100 -363.613 5.75572
228      127.751 1 2 100 -363.613 4.62061
229      127.751 1 2 100 -363.613 3.4855
230      127.751 1 2 100 -363.613 2.35039
231      127.751 1 2 100 -357.45 0
232      127.751 1 2 100 -357.45 0.801034
233      127.751 1 2 100 -357.45 1.60207
234      127.751 1 2 100 -357.45 2.4031
235      127.751 1 2 100 -357.45 3.20414
236      127.751 1 2 100 -357.45 4.00517
237      127.751 1 2 100 -357.45 4.8062
238      127.751 1 2 100 -357.45 5.60724
239      127.751 1 2 100 -357.45 0.125086
240      127.751 1 2 100 -357.45 0.92612
241      127.751 1 2 100 -351.287 0
242      127.751 1 2 100 -351.287 2.73718
243      127.751 1 2 100 -351.287 5.47435
244      127.751 1 2 100 -351.287 1.92835
245      127.751 1 2 100 -351.287 4.66552
246      127.751 1 2 100 -351.287 1.11951
247      127.751 1 2 100 -351.287 3.85669
248      127.751 1 2 100 -351.287 0.310683
249      127.751 1 2 100 -351.287 3.04786
250      127.751 1 2 100 -351.287 5.78504
251      127.751 1 2 100 -345.124 0
252      127.751 1 2 100 -345.124 4.67332
253      127.751 1 2 100 -345.124 3.06345
254      127.751 1 2 100 -345.124 1.45359
255      127.751 1 2 100 -345.124 6.12691
256      127.751 1 2 100 -345.124 4.51704
257      127.751 1 2 100 -345.124 2.90718
258      127.751 1 2 100 -345.124 1.29731
259      127.751 1 2 100 -345.124 5.97063
260      127.751 1 2 100 -345.124 4.36077
261      127.751 1 2 100 -338.961 0
262      127.751 1 2 100 -338.961 0.326278
263      127.751 1 2 100 -338.961 0.652556
264      127.751 1 2 100 -338.961 0.978834
265      127.751 1 2 100 -338.961 1.30511
266      127.751 1 2 100 -338.961 1.63139
267      127.751 1 2 100 -338.961 1.95767
268      127.751 1 2 100 -338.961 2.28395
269      127.751 1 2 100 -338.961 2.61022
270      127.751 1 2 100 -338.961 2.9365
271      127.751 1 2 100 -332.798 0
272      127.751 1 2 100 -332.798 2.26242
273      127.751 1 2 100 -332.798 4.52484
274      127.751 1 2 100 -332.798 0.504078
275      127.751 1 2 100 -332.798 2.7665
276      127.751 1 2 100 -332.798 5.02892
277      127.751 1 2 100 -332.798 1.00816
278      127.751 1 2 100 -332.798 3.27058
279      127.751 1 2 100 -332.798 5.533
280      127.751 1 2 100 -332.798 1.51223
281      127.751 1 2 100 -326.636 0
282      127.751 1 2 100 -326.636 4.19856
283      127.751 1 2 100 -326.636 2.11394
284      127.751 1 2 100 -326.636 0.0293221
285      127.751 1 2 100 -326.636 4.22789
286      127.751 1 2 100 -326.636 2.14327
287      127.751 1 2 100 -326.636 0.0586441
288      127.751 1 2 100 -326.636 4.25721
289      127.751 1 2 100 -326.636 2.17259
290      127.751 1 2 100 -326.636 0.0879662
291      127.751 1 2 100 -320.473 0
292      127.751 1 2 100 -320.473 6.13471
293      127.751 1 2 100 -320.473 5.98623
294      127.751 1 2 100 -320.473 5.83775
295      127.751 1 2 100 -320.473 5.68927
296      127.751 1 2 100 -320.473 5.5408
297      127.751 1 2 100 -320.473 5.39232
298      127.751 1 2 100 -320.473 5.24384
299      127.751 1 2 100 -320.473 5.09536
300      127.751 1 2 100 -320.473 4.94688
301      127.751 1 2 100 -314.31 0
302      127.751 1 2 100 -314.31 1.78767
303      127.751 1 2 100 -314.31 3.57533
304      127.751 1 2 100 -314.31 5.363
305      127.751 1 2 100 -314.31 0.867475
306      127.751 1 2 100 -314.31 2.65514
307      127.751 1 2 100 -314.31 4.44281
308      127.751 1 2 100 -314.31 6.23047
309      127.751 1 2 100 -314.31 1.73495
310      127.751 1 2 100 -314.31 3.52262
311      127.751 1 2 100 -308.147 0
312      127.751 1 2 100 -308.147 3.72381
313      127.751 1 2 100 -308.147 1.16443
314      127.751 1 2 100 -308.147 4.88824
315      127.751 1 2 100 -308.147 2.32886
316      127.751 1 2 100 -308.147 6.05267
317      127.751 1 2 100 -308.147 3.49329
318      127.751 1 2 100 -308.147 0.933917
319      127.751 1 2 100 -308.147 4.65773
320      127.751 1 2 100 -308.147 2.09835
321      127.751 1 2 100 -301.984 0
322      127.751 1 2 100 -301.984 5.65995
323      127.751 1 2 100 -301.984 5.03672
324      127.751 1 2 100 -301.984 4.41348
325      127.751 1 2 100 -301.984 3.79025
326      127.751 1 2 100 -301.984 3.16702
327      127.751 1 2 100 -301.984 2.54378
328      127.751 1 2 100 -301.984 1.92055
329      127.751 1 2 100 -301.984 1.29731
330      127.751 1 2 100 -301.984 0.674081
331      127.751 1 2 100 -295.821 0
332      127.751 1 2 100 -295.821 1.31291
333      127.751 1 2 100 -295.821 2.62582
334      127.751 1 2 100 -295.821 3.93873
335      127.751 1 2 100 -295.821 5.25164
336      127.751 1 2 100 -295.821 0.281361
337      127.751 1 2 100 -295.821 1.59427
338      127.751 1 2 100 -295.821 2.90718
339      127.751 1 2 100 -295.821 4.22009
340      127.751 1 2 100 -295.821 5.533
341      127.751 1 2 100 -289.658 0
342      127.751 1 2 100 -289.658 3.24905
343      127.751 1 2 100 -289.658 0.214919
344      127.751 1 2 100 -289.658 3.46397
345      127.751 1 2 100 -289.658 0.429839
346      127.751 1 2 100 -289.658 3.67889
347      127.751 1 2 100 -289.658 0.644758
348      127.751 1 2 100 -289.658 3.89381
349      127.751 1 2 100 -289.658 0.859678
350      127.751 1 2 100 -289.658 4.10873
351      127.751 1 2 100 -283.495 0
352      127.751 1 2 100 -283.495 5.1852
353      127.751 1 2 100 -283.495 4.08721
354      127.751 1 2 100 -283.495 2.98922
355      127.751 1 2 100 -283.495 1.89123
356      127.751 1 2 100 -283.495 0.793236
357      127.751 1 2 100 -283.495 5.97843
358      127.751 1 2 100 -283.495 4.88044
359      127.751 1 2 100 -283.495 3.78245
360      127.751 1 2 100 -283.495 2.68446
361      127.751 1 2 100 -277.332 0
362      127.751 1 2 100 -277.332 0.838153
363      127.751 1 2 100 -277.332 1.67631
364      127.751 1 2 100 -277.332 2.51446
365      127.751 1 2 100 -277.332 3.35261
366      127.751 1 2 100 -277.332 4.19077
367      127.751 1 2 100 -277.332 5.02892
368      127.751 1 2 100 -277.332 5.86707
369      127.751 1 2 100 -277.332 0.422042
370      127.751 1 2 100 -277.332 1.26019
371      127.751 1 2 100 -271.169 0
372      127.751 1 2 100 -271.169 2.7743
373      127.751 1 2 100 -271.169 5.54859
374      127.751 1 2 100 -271.169 2.0397
375      127.751 1 2 100 -271.169 4.814
376      127.751 1 2 100 -271.169 1.30511
377      127.751 1 2 100 -271.169 4.07941
378      127.751 1 2 100 -271.169 0.57052
379      127.751 1 2 100 -271.169 3.34482
380      127.751 1 2 100 -271.169 6.11911
381      127.751 1 2 100 -265.006 0
382      127.751 1 2 100 -265.006 4.71044
383      127.751 1 2 100 -265.006 3.13769
384      127.751 1 2 100 -265.006 1.56495
385      127.751 1 2 100 -265.006 6.27539
386      127.751 1 2 100 -265.006 4.70264
387      127.751 1 2 100 -265.006 3.1299
388      127.751 1 2 100 -265.006 1.55715
389      127.751 1 2 100 -265.006 6.26759
390      127.751 1 2 100 -265.006 4.69484
391      127.751 1 2 100 -258.843 0
392      127.751 1 2 100 -258.843 0.363397
393      127.751 1 2 100 -258.843 0.726795
394      127.751 1 2 100 -258.843 1.09019
395      127.751 1 2 100 -258.843 1.45359
396      127.751 1 2 100 -258.843 1.81699
397      127.751 1 2 100 -258.843 2.18038
398      127.751 1 2 100 -258.843 2.54378
399      127.751 1 2 100 -258.843 2.90718
400      127.751 1 2 100 -258.843 3.27058
401      127.751 1 2 100 -252.68 0
402      127.751 1 2 100 -252.68 2.29954
403      127.751 1 2 100 -252.68 4.59908
404      127.751 1 2 100 -252.68 0.615436
405      127.751 1 2 100 -252.68 2.91498
406      127.751 1 2 100 -252.68 5.21452
407      127.751 1 2 100 -252.68 1.23087
408      127.751 1 2 100 -252.68 3.53041
409      127.751 1 2 100 -252.68 5.82995
410      127.751 1 2 100 -252.68 1.84631
411      127.751 1 2 100 -246.517 0
412      127.751 1 2 100 -246.517 4.23568
413      127.751 1 2 100 -246.517 2.18818
414      127.751 1 2 100 -246.517 0.140681
415      127.751 1 2 100 -246.517 4.37636
416      127.751 1 2 100 -246.517 2.32886
417      127.751 1 2 100 -246.517 0.281361
418      127.751 1 2 100 -246.517 4.51704
419      127.751 1 2 100 -246.517 2.46954
420      127.751 1 2 100 -246.517 0.422042
421      127.751 1 2 100 -240.354 0
422      127.751 1 2 100 -240.354 6.17183
423      127.751 1 2 100 -240.354 6.06047
424      127.751 1 2 100 -240.354 5.94911
425      127.751 1 2 100 -240.354 5.83775
426      127.751 1 2 100 -240.354 5.72639
427      127.751 1 2 100 -240.354 5.61503
428      127.751 1 2 100 -240.354 5.50368
429      127.751 1 2 100 -240.354 5.39232
430      127.751 1 2 100 -240.354 5.28096
431      127.751 1 2 100 -234.192 0
432      127.751 1 2 100 -234.192 1.82478
433      127.751 1 2 100 -234.192 3.64957
434      127.751 1 2 100 -234.192 5.47435
435      127.751 1 2 100 -234.192 1.01595
436      127.751 1 2 100 -234.192 2.84074
437      127.751 1 2 100 -234.192 4.66552
438      127.751 1 2 100 -234.192 0.207122
439      127.751 1 2 100 -234.192 2.03191
440      127.751 1 2 100 -234.192 3.85669
441      127.751 1 2 100 -228.029 0
442      127.751 1 2 100 -228.029 3.76093
443      127.751 1 2 100 -228.029 1.23867
444      127.751 1 2 100 -228.029 4.9996
445      127.751 1 2 100 -228.029 2.47734
446      127.751 1 2 100 -228.029 6.23827
447      127.751 1 2 100 -228.029 3.71601
448      127.751 1 2 100 -228.029 1.19375
449      127.751 1 2 100 -228.029 4.95468
450      127.751 1 2 100 -228.029 2.43242
451      127.751 1 2 100 -221.866 0
452      127.751 1 2 100 -221.866 5.69707
453      127.751 1 2 100 -221.866 5.11096
454      127.751 1 2 100 -221.866 4.52484
455      127.751 1 2 100 -221.866 3.93873
456      127.751 1 2 100 -221.866 3.35261
457      127.751 1 2 100 -221.866 2.7665
458      127.751 1 2 100 -221.866 2.18038
459      127.751 1 2 100 -221.866 1.59427
460      127.751 1 2 100 -221.866 1.00816
461      127.751 1 2 100 -215.703 0
462      127.751 1 2 100 -215.703 1.35003
463      127.751 1 2 100 -215.703 2.70006
464      127.751 1 2 100 -215.703 4.05009
465      127.751 1 2 100 -215.703 5.40012
466      127.751 1 2 100 -215.703 0.466958
467      127.751 1 2 100 -215.703 1.81699
468      127.751 1 2 100 -215.703 3.16702
469      127.751 1 2 100 -215.703 4.51704
470      127.751 1 2 100 -215.703 5.86707
471      127.751 1 2 100 -209.54 0
472      127.751 1 2 100 -209.54 3.28617
473      127.751 1 2 100 -209.54 0.289158
474      127.751 1 2 100 -209.54 3.57533
475      127.751 1 2 100 -209.54 0.578317
476      127.751 1 2 100 -209.54 3.86449
477      127.751 1 2 100 -209.54 0.867475
478      127.751 1 2 100 -209.54 4.15365
479      127.751 1 2 100 -209.54 1.15663
480      127.751 1 2 100 -209.54 4.44281
481      127.751 1 2 100 -203.377 0
482      127.751 1 2 100 -203.377 5.22232
483      127.751 1 2 100 -203.377 4.16144
484      127.751 1 2 100 -203.377 3.10057
485      127.751 1 2 100 -203.377 2.0397
486      127.751 1 2 100 -203.377 0.978834
