# Pulseq sequence file
# Created by MATLAB mr toolbox

# Created for Pulseq-CEST
# https://pulseq-cest.github.io/
# Created by: Kai Herz
# Created at: 29-Jun-2023 13:29:33

[VERSION]
major 1
minor 3
revision 1

[DEFINITIONS]
B0 3 
B1pa 1.78 
B1rms 1.99620497 
DCsat 0.909090909 
FREQ 127.7292 
M0_offset -300 
Trec 3.5 
Trec_M0 3.5 
Tsat 1.975 
n_pulses 36 
num_meas 802 
offsets_ppm -300 -4 -3.99 -3.98 -3.97 -3.96 -3.95 -3.94 -3.93 -3.92 -3.91 -3.9 -3.89 -3.88 -3.87 -3.86 -3.85 -3.84 -3.83 -3.82 -3.81 -3.8 -3.79 -3.78 -3.77 -3.76 -3.75 -3.74 -3.73 -3.72 -3.71 -3.7 -3.69 -3.68 -3.67 -3.66 -3.65 -3.64 -3.63 -3.62 -3.61 -3.6 -3.59 -3.58 -3.57 -3.56 -3.55 -3.54 -3.53 -3.52 -3.51 -3.5 -3.49 -3.48 -3.47 -3.46 -3.45 -3.44 -3.43 -3.42 -3.41 -3.4 -3.39 -3.38 -3.37 -3.36 -3.35 -3.34 -3.33 -3.32 -3.31 -3.3 -3.29 -3.28 -3.27 -3.26 -3.25 -3.24 -3.23 -3.22 -3.21 -3.2 -3.19 -3.18 -3.17 -3.16 -3.15 -3.14 -3.13 -3.12 -3.11 -3.1 -3.09 -3.08 -3.07 -3.06 -3.05 -3.04 -3.03 -3.02 -3.01 -3 -2.99 -2.98 -2.97 -2.96 -2.95 -2.94 -2.93 -2.92 -2.91 -2.9 -2.89 -2.88 -2.87 -2.86 -2.85 -2.84 -2.83 -2.82 -2.81 -2.8 -2.79 -2.78 -2.77 -2.76 -2.75 -2.74 -2.73 -2.72 -2.71 -2.7 -2.69 -2.68 -2.67 -2.66 -2.65 -2.64 -2.63 -2.62 -2.61 -2.6 -2.59 -2.58 -2.57 -2.56 -2.55 -2.54 -2.53 -2.52 -2.51 -2.5 -2.49 -2.48 -2.47 -2.46 -2.45 -2.44 -2.43 -2.42 -2.41 -2.4 -2.39 -2.38 -2.37 -2.36 -2.35 -2.34 -2.33 -2.32 -2.31 -2.3 -2.29 -2.28 -2.27 -2.26 -2.25 -2.24 -2.23 -2.22 -2.21 -2.2 -2.19 -2.18 -2.17 -2.16 -2.15 -2.14 -2.13 -2.12 -2.11 -2.1 -2.09 -2.08 -2.07 -2.06 -2.05 -2.04 -2.03 -2.02 -2.01 -2 -1.99 -1.98 -1.97 -1.96 -1.95 -1.94 -1.93 -1.92 -1.91 -1.9 -1.89 -1.88 -1.87 -1.86 -1.85 -1.84 -1.83 -1.82 -1.81 -1.8 -1.79 -1.78 -1.77 -1.76 -1.75 -1.74 -1.73 -1.72 -1.71 -1.7 -1.69 -1.68 -1.67 -1.66 -1.65 -1.64 -1.63 -1.62 -1.61 -1.6 -1.59 -1.58 -1.57 -1.56 -1.55 -1.54 -1.53 -1.52 -1.51 -1.5 -1.49 -1.48 -1.47 -1.46 -1.45 -1.44 -1.43 -1.42 -1.41 -1.4 -1.39 -1.38 -1.37 -1.36 -1.35 -1.34 -1.33 -1.32 -1.31 -1.3 -1.29 -1.28 -1.27 -1.26 -1.25 -1.24 -1.23 -1.22 -1.21 -1.2 -1.19 -1.18 -1.17 -1.16 -1.15 -1.14 -1.13 -1.12 -1.11 -1.1 -1.09 -1.08 -1.07 -1.06 -1.05 -1.04 -1.03 -1.02 -1.01 -1 -0.99 -0.98 -0.97 -0.96 -0.95 -0.94 -0.93 -0.92 -0.91 -0.9 -0.89 -0.88 -0.87 -0.86 -0.85 -0.84 -0.83 -0.82 -0.81 -0.8 -0.79 -0.78 -0.77 -0.76 -0.75 -0.74 -0.73 -0.72 -0.71 -0.7 -0.69 -0.68 -0.67 -0.66 -0.65 -0.64 -0.63 -0.62 -0.61 -0.6 -0.59 -0.58 -0.57 -0.56 -0.55 -0.54 -0.53 -0.52 -0.51 -0.5 -0.49 -0.48 -0.47 -0.46 -0.45 -0.44 -0.43 -0.42 -0.41 -0.4 -0.39 -0.38 -0.37 -0.36 -0.35 -0.34 -0.33 -0.32 -0.31 -0.3 -0.29 -0.28 -0.27 -0.26 -0.25 -0.24 -0.23 -0.22 -0.21 -0.2 -0.19 -0.18 -0.17 -0.16 -0.15 -0.14 -0.13 -0.12 -0.11 -0.1 -0.09 -0.08 -0.07 -0.06 -0.05 -0.04 -0.03 -0.02 -0.01 0 0.01 0.02 0.03 0.04 0.05 0.06 0.07 0.08 0.09 0.1 0.11 0.12 0.13 0.14 0.15 0.16 0.17 0.18 0.19 0.2 0.21 0.22 0.23 0.24 0.25 0.26 0.27 0.28 0.29 0.3 0.31 0.32 0.33 0.34 0.35 0.36 0.37 0.38 0.39 0.4 0.41 0.42 0.43 0.44 0.45 0.46 0.47 0.48 0.49 0.5 0.51 0.52 0.53 0.54 0.55 0.56 0.57 0.58 0.59 0.6 0.61 0.62 0.63 0.64 0.65 0.66 0.67 0.68 0.69 0.7 0.71 0.72 0.73 0.74 0.75 0.76 0.77 0.78 0.79 0.8 0.81 0.82 0.83 0.84 0.85 0.86 0.87 0.88 0.89 0.9 0.91 0.92 0.93 0.94 0.95 0.96 0.97 0.98 0.99 1 1.01 1.02 1.03 1.04 1.05 1.06 1.07 1.08 1.09 1.1 1.11 1.12 1.13 1.14 1.15 1.16 1.17 1.18 1.19 1.2 1.21 1.22 1.23 1.24 1.25 1.26 1.27 1.28 1.29 1.3 1.31 1.32 1.33 1.34 1.35 1.36 1.37 1.38 1.39 1.4 1.41 1.42 1.43 1.44 1.45 1.46 1.47 1.48 1.49 1.5 1.51 1.52 1.53 1.54 1.55 1.56 1.57 1.58 1.59 1.6 1.61 1.62 1.63 1.64 1.65 1.66 1.67 1.68 1.69 1.7 1.71 1.72 1.73 1.74 1.75 1.76 1.77 1.78 1.79 1.8 1.81 1.82 1.83 1.84 1.85 1.86 1.87 1.88 1.89 1.9 1.91 1.92 1.93 1.94 1.95 1.96 1.97 1.98 1.99 2 2.01 2.02 2.03 2.04 2.05 2.06 2.07 2.08 2.09 2.1 2.11 2.12 2.13 2.14 2.15 2.16 2.17 2.18 2.19 2.2 2.21 2.22 2.23 2.24 2.25 2.26 2.27 2.28 2.29 2.3 2.31 2.32 2.33 2.34 2.35 2.36 2.37 2.38 2.39 2.4 2.41 2.42 2.43 2.44 2.45 2.46 2.47 2.48 2.49 2.5 2.51 2.52 2.53 2.54 2.55 2.56 2.57 2.58 2.59 2.6 2.61 2.62 2.63 2.64 2.65 2.66 2.67 2.68 2.69 2.7 2.71 2.72 2.73 2.74 2.75 2.76 2.77 2.78 2.79 2.8 2.81 2.82 2.83 2.84 2.85 2.86 2.87 2.88 2.89 2.9 2.91 2.92 2.93 2.94 2.95 2.96 2.97 2.98 2.99 3 3.01 3.02 3.03 3.04 3.05 3.06 3.07 3.08 3.09 3.1 3.11 3.12 3.13 3.14 3.15 3.16 3.17 3.18 3.19 3.2 3.21 3.22 3.23 3.24 3.25 3.26 3.27 3.28 3.29 3.3 3.31 3.32 3.33 3.34 3.35 3.36 3.37 3.38 3.39 3.4 3.41 3.42 3.43 3.44 3.45 3.46 3.47 3.48 3.49 3.5 3.51 3.52 3.53 3.54 3.55 3.56 3.57 3.58 3.59 3.6 3.61 3.62 3.63 3.64 3.65 3.66 3.67 3.68 3.69 3.7 3.71 3.72 3.73 3.74 3.75 3.76 3.77 3.78 3.79 3.8 3.81 3.82 3.83 3.84 3.85 3.86 3.87 3.88 3.89 3.9 3.91 3.92 3.93 3.94 3.95 3.96 3.97 3.98 3.99 4 
seq_id_string  
spoiling 1 
td 0.005 
tp 0.05 

# Format of blocks:
#  #  D RF  GX  GY  GZ ADC EXT
[BLOCKS]
    1  1  0   0   0   0  0  0
    2  0  1   0   0   0  0  0
    3  2  0   0   0   0  0  0
    4  0  2   0   0   0  0  0
    5  2  0   0   0   0  0  0
    6  0  3   0   0   0  0  0
    7  2  0   0   0   0  0  0
    8  0  4   0   0   0  0  0
    9  2  0   0   0   0  0  0
   10  0  5   0   0   0  0  0
   11  2  0   0   0   0  0  0
   12  0  6   0   0   0  0  0
   13  2  0   0   0   0  0  0
   14  0  7   0   0   0  0  0
   15  2  0   0   0   0  0  0
   16  0  8   0   0   0  0  0
   17  2  0   0   0   0  0  0
   18  0  9   0   0   0  0  0
   19  2  0   0   0   0  0  0
   20  0 10   0   0   0  0  0
   21  2  0   0   0   0  0  0
   22  0 11   0   0   0  0  0
   23  2  0   0   0   0  0  0
   24  0 12   0   0   0  0  0
   25  2  0   0   0   0  0  0
   26  0 13   0   0   0  0  0
   27  2  0   0   0   0  0  0
   28  0 14   0   0   0  0  0
   29  2  0   0   0   0  0  0
   30  0 15   0   0   0  0  0
   31  2  0   0   0   0  0  0
   32  0 16   0   0   0  0  0
   33  2  0   0   0   0  0  0
   34  0 17   0   0   0  0  0
   35  2  0   0   0   0  0  0
   36  0 18   0   0   0  0  0
   37  2  0   0   0   0  0  0
   38  0 19   0   0   0  0  0
   39  2  0   0   0   0  0  0
   40  0 20   0   0   0  0  0
   41  2  0   0   0   0  0  0
   42  0 21   0   0   0  0  0
   43  2  0   0   0   0  0  0
   44  0 22   0   0   0  0  0
   45  2  0   0   0   0  0  0
   46  0 23   0   0   0  0  0
   47  2  0   0   0   0  0  0
   48  0 24   0   0   0  0  0
   49  2  0   0   0   0  0  0
   50  0 25   0   0   0  0  0
   51  2  0   0   0   0  0  0
   52  0 26   0   0   0  0  0
   53  2  0   0   0   0  0  0
   54  0 27   0   0   0  0  0
   55  2  0   0   0   0  0  0
   56  0 28   0   0   0  0  0
   57  2  0   0   0   0  0  0
   58  0 29   0   0   0  0  0
   59  2  0   0   0   0  0  0
   60  0 30   0   0   0  0  0
   61  2  0   0   0   0  0  0
   62  0 31   0   0   0  0  0
   63  2  0   0   0   0  0  0
   64  0 32   0   0   0  0  0
   65  2  0   0   0   0  0  0
   66  0 33   0   0   0  0  0
   67  2  0   0   0   0  0  0
   68  0 34   0   0   0  0  0
   69  2  0   0   0   0  0  0
   70  0 35   0   0   0  0  0
   71  2  0   0   0   0  0  0
   72  0 36   0   0   0  0  0
   73  0  0   1   1   1  0  0
   74  0  0   0   0   0  1  0
   75  1  0   0   0   0  0  0
   76  0 37   0   0   0  0  0
   77  2  0   0   0   0  0  0
   78  0 38   0   0   0  0  0
   79  2  0   0   0   0  0  0
   80  0 39   0   0   0  0  0
   81  2  0   0   0   0  0  0
   82  0 40   0   0   0  0  0
   83  2  0   0   0   0  0  0
   84  0 41   0   0   0  0  0
   85  2  0   0   0   0  0  0
   86  0 42   0   0   0  0  0
   87  2  0   0   0   0  0  0
   88  0 43   0   0   0  0  0
   89  2  0   0   0   0  0  0
   90  0 44   0   0   0  0  0
   91  2  0   0   0   0  0  0
   92  0 45   0   0   0  0  0
   93  2  0   0   0   0  0  0
   94  0 46   0   0   0  0  0
   95  2  0   0   0   0  0  0
   96  0 47   0   0   0  0  0
   97  2  0   0   0   0  0  0
   98  0 48   0   0   0  0  0
   99  2  0   0   0   0  0  0
  100  0 49   0   0   0  0  0
  101  2  0   0   0   0  0  0
  102  0 50   0   0   0  0  0
  103  2  0   0   0   0  0  0
  104  0 51   0   0   0  0  0
  105  2  0   0   0   0  0  0
  106  0 52   0   0   0  0  0
  107  2  0   0   0   0  0  0
  108  0 53   0   0   0  0  0
  109  2  0   0   0   0  0  0
  110  0 54   0   0   0  0  0
  111  2  0   0   0   0  0  0
  112  0 55   0   0   0  0  0
  113  2  0   0   0   0  0  0
  114  0 56   0   0   0  0  0
  115  2  0   0   0   0  0  0
  116  0 57   0   0   0  0  0
  117  2  0   0   0   0  0  0
  118  0 58   0   0   0  0  0
  119  2  0   0   0   0  0  0
  120  0 59   0   0   0  0  0
  121  2  0   0   0   0  0  0
  122  0 60   0   0   0  0  0
  123  2  0   0   0   0  0  0
  124  0 61   0   0   0  0  0
  125  2  0   0   0   0  0  0
  126  0 62   0   0   0  0  0
  127  2  0   0   0   0  0  0
  128  0 63   0   0   0  0  0
  129  2  0   0   0   0  0  0
  130  0 64   0   0   0  0  0
  131  2  0   0   0   0  0  0
  132  0 65   0   0   0  0  0
  133  2  0   0   0   0  0  0
  134  0 66   0   0   0  0  0
  135  2  0   0   0   0  0  0
  136  0 67   0   0   0  0  0
  137  2  0   0   0   0  0  0
  138  0 68   0   0   0  0  0
  139  2  0   0   0   0  0  0
  140  0 69   0   0   0  0  0
  141  2  0   0   0   0  0  0
  142  0 70   0   0   0  0  0
  143  2  0   0   0   0  0  0
  144  0 71   0   0   0  0  0
  145  2  0   0   0   0  0  0
  146  0 72   0   0   0  0  0
  147  0  0   1   1   1  0  0
  148  0  0   0   0   0  1  0
  149  1  0   0   0   0  0  0
  150  0 73   0   0   0  0  0
  151  2  0   0   0   0  0  0
  152  0 74   0   0   0  0  0
  153  2  0   0   0   0  0  0
  154  0 75   0   0   0  0  0
  155  2  0   0   0   0  0  0
  156  0 76   0   0   0  0  0
  157  2  0   0   0   0  0  0
  158  0 77   0   0   0  0  0
  159  2  0   0   0   0  0  0
  160  0 78   0   0   0  0  0
  161  2  0   0   0   0  0  0
  162  0 79   0   0   0  0  0
  163  2  0   0   0   0  0  0
  164  0 80   0   0   0  0  0
  165  2  0   0   0   0  0  0
  166  0 81   0   0   0  0  0
  167  2  0   0   0   0  0  0
  168  0 82   0   0   0  0  0
  169  2  0   0   0   0  0  0
  170  0 83   0   0   0  0  0
  171  2  0   0   0   0  0  0
  172  0 84   0   0   0  0  0
  173  2  0   0   0   0  0  0
[RF]
1      141.677 1 2 100 -38318.8 0
2      141.677 1 2 100 -38318.8 0.389557
3      141.677 1 2 100 -38318.8 0.779115
4      141.677 1 2 100 -38318.8 1.16867
5      141.677 1 2 100 -38318.8 1.55823
6      141.677 1 2 100 -38318.8 1.94779
7      141.677 1 2 100 -38318.8 2.33734
8      141.677 1 2 100 -38318.8 2.7269
9      141.677 1 2 100 -38318.8 3.11646
10      141.677 1 2 100 -38318.8 3.50602
11      141.677 1 2 100 -38318.8 3.89557
12      141.677 1 2 100 -38318.8 4.28513
13      141.677 1 2 100 -38318.8 4.67469
14      141.677 1 2 100 -38318.8 5.06425
15      141.677 1 2 100 -38318.8 5.4538
16      141.677 1 2 100 -38318.8 5.84336
17      141.677 1 2 100 -38318.8 6.23292
18      141.677 1 2 100 -38318.8 0.339292
19      141.677 1 2 100 -38318.8 0.728849
20      141.677 1 2 100 -38318.8 1.11841
21      141.677 1 2 100 -38318.8 1.50796
22      141.677 1 2 100 -38318.8 1.89752
23      141.677 1 2 100 -38318.8 2.28708
24      141.677 1 2 100 -38318.8 2.67664
25      141.677 1 2 100 -38318.8 3.06619
26      141.677 1 2 100 -38318.8 3.45575
27      141.677 1 2 100 -38318.8 3.84531
28      141.677 1 2 100 -38318.8 4.23487
29      141.677 1 2 100 -38318.8 4.62442
30      141.677 1 2 100 -38318.8 5.01398
31      141.677 1 2 100 -38318.8 5.40354
32      141.677 1 2 100 -38318.8 5.7931
33      141.677 1 2 100 -38318.8 6.18265
34      141.677 1 2 100 -38318.8 0.289027
35      141.677 1 2 100 -38318.8 0.678584
36      141.677 1 2 100 -38318.8 1.06814
37      141.677 1 2 100 -510.917 0
38      141.677 1 2 100 -510.917 2.85357
39      141.677 1 2 100 -510.917 5.70714
40      141.677 1 2 100 -510.917 2.27753
41      141.677 1 2 100 -510.917 5.1311
42      141.677 1 2 100 -510.917 1.70149
43      141.677 1 2 100 -510.917 4.55506
44      141.677 1 2 100 -510.917 1.12544
45      141.677 1 2 100 -510.917 3.97902
46      141.677 1 2 100 -510.917 0.549402
47      141.677 1 2 100 -510.917 3.40297
48      141.677 1 2 100 -510.917 6.25654
49      141.677 1 2 100 -510.917 2.82693
50      141.677 1 2 100 -510.917 5.6805
51      141.677 1 2 100 -510.917 2.25089
52      141.677 1 2 100 -510.917 5.10446
53      141.677 1 2 100 -510.917 1.67485
54      141.677 1 2 100 -510.917 4.52842
55      141.677 1 2 100 -510.917 1.0988
56      141.677 1 2 100 -510.917 3.95237
57      141.677 1 2 100 -510.917 0.522761
58      141.677 1 2 100 -510.917 3.37633
59      141.677 1 2 100 -510.917 6.2299
60      141.677 1 2 100 -510.917 2.80029
61      141.677 1 2 100 -510.917 5.65386
62      141.677 1 2 100 -510.917 2.22425
63      141.677 1 2 100 -510.917 5.07782
64      141.677 1 2 100 -510.917 1.64821
65      141.677 1 2 100 -510.917 4.50178
66      141.677 1 2 100 -510.917 1.07216
67      141.677 1 2 100 -510.917 3.92573
68      141.677 1 2 100 -510.917 0.49612
69      141.677 1 2 100 -510.917 3.34969
70      141.677 1 2 100 -510.917 6.20326
71      141.677 1 2 100 -510.917 2.77365
72      141.677 1 2 100 -510.917 5.62722
73      141.677 1 2 100 -509.64 0
74      141.677 1 2 100 -509.64 3.25484
75      141.677 1 2 100 -509.64 0.226504
76      141.677 1 2 100 -509.64 3.48135
77      141.677 1 2 100 -509.64 0.453008
78      141.677 1 2 100 -509.64 3.70785
79      141.677 1 2 100 -509.64 0.679511
80      141.677 1 2 100 -509.64 3.93436
81      141.677 1 2 100 -509.64 0.906015
82      141.677 1 2 100 -509.64 4.16086
83      141.677 1 2 100 -509.64 1.13252
84      141.677 1 2 100 -509.64 4.38736
85      141.677 1 2 100 -509.64 1.35902
86      141.677 1 2 100 -509.64 4.61387
87      141.677 1 2 100 -509.64 1.58553
88      141.677 1 2 100 -509.64 4.84037
89      141.677 1 2 100 -509.64 1.81203
90      141.677 1 2 100 -509.64 5.06687
91      141.677 1 2 100 -509.64 2.03853
92      141.677 1 2 100 -509.64 5.29338
93      141.677 1 2 100 -509.64 2.26504
94      141.677 1 2 100 -509.64 5.51988
95      141.677 1 2 100 -509.64 2.49154
96      141.677 1 2 100 -509.64 5.74639
97      141.677 1 2 100 -509.64 2.71805
98      141.677 1 2 100 -509.64 5.97289
99      141.677 1 2 100 -509.64 2.94455
100      141.677 1 2 100 -509.64 6.19939
101      141.677 1 2 100 -509.64 3.17105
102      141.677 1 2 100 -509.64 0.142713
103      141.677 1 2 100 -509.64 3.39756
104      141.677 1 2 100 -509.64 0.369216
105      141.677 1 2 100 -509.64 3.62406
106      141.677 1 2 100 -509.64 0.59572
107      141.677 1 2 100 -509.64 3.85056
108      141.677 1 2 100 -509.64 0.822224
109      141.677 1 2 100 -508.362 0
110      141.677 1 2 100 -508.362 3.65612
111      141.677 1 2 100 -508.362 1.02905
112      141.677 1 2 100 -508.362 4.68517
113      141.677 1 2 100 -508.362 2.0581
114      141.677 1 2 100 -508.362 5.71422
115      141.677 1 2 100 -508.362 3.08715
116      141.677 1 2 100 -508.362 0.460082
117      141.677 1 2 100 -508.362 4.1162
118      141.677 1 2 100 -508.362 1.48913
119      141.677 1 2 100 -508.362 5.14525
120      141.677 1 2 100 -508.362 2.51818
121      141.677 1 2 100 -508.362 6.1743
122      141.677 1 2 100 -508.362 3.54723
123      141.677 1 2 100 -508.362 0.920165
124      141.677 1 2 100 -508.362 4.57628
125      141.677 1 2 100 -508.362 1.94921
126      141.677 1 2 100 -508.362 5.60533
127      141.677 1 2 100 -508.362 2.97827
128      141.677 1 2 100 -508.362 0.351197
129      141.677 1 2 100 -508.362 4.00732
130      141.677 1 2 100 -508.362 1.38025
131      141.677 1 2 100 -508.362 5.03637
132      141.677 1 2 100 -508.362 2.4093
133      141.677 1 2 100 -508.362 6.06542
134      141.677 1 2 100 -508.362 3.43835
135      141.677 1 2 100 -508.362 0.81128
136      141.677 1 2 100 -508.362 4.4674
137      141.677 1 2 100 -508.362 1.84033
138      141.677 1 2 100 -508.362 5.49645
139      141.677 1 2 100 -508.362 2.86938
140      141.677 1 2 100 -508.362 0.242312
141      141.677 1 2 100 -508.362 3.89843
142      141.677 1 2 100 -508.362 1.27136
143      141.677 1 2 100 -508.362 4.92748
144      141.677 1 2 100 -508.362 2.30041
145      141.677 1 2 100 -507.085 0
146      141.677 1 2 100 -507.085 4.05739
147      141.677 1 2 100 -507.085 1.8316
148      141.677 1 2 100 -507.085 5.88899
149      141.677 1 2 100 -507.085 3.66319
150      141.677 1 2 100 -507.085 1.4374
151      141.677 1 2 100 -507.085 5.49479
152      141.677 1 2 100 -507.085 3.26899
153      141.677 1 2 100 -507.085 1.0432
154      141.677 1 2 100 -507.085 5.10059
155      141.677 1 2 100 -507.085 2.8748
156      141.677 1 2 100 -507.085 0.649002
157      141.677 1 2 100 -507.085 4.70639
158      141.677 1 2 100 -507.085 2.4806
159      141.677 1 2 100 -507.085 0.254803
160      141.677 1 2 100 -507.085 4.31219
161      141.677 1 2 100 -507.085 2.0864
162      141.677 1 2 100 -507.085 6.14379
163      141.677 1 2 100 -507.085 3.918
164      141.677 1 2 100 -507.085 1.6922
165      141.677 1 2 100 -507.085 5.74959
166      141.677 1 2 100 -507.085 3.5238
167      141.677 1 2 100 -507.085 1.298
168      141.677 1 2 100 -507.085 5.35539
169      141.677 1 2 100 -507.085 3.1296
170      141.677 1 2 100 -507.085 0.903805
171      141.677 1 2 100 -507.085 4.9612
172      141.677 1 2 100 -507.085 2.7354
173      141.677 1 2 100 -507.085 0.509607
174      141.677 1 2 100 -507.085 4.567
175      141.677 1 2 100 -507.085 2.3412
176      141.677 1 2 100 -507.085 0.115408
177      141.677 1 2 100 -507.085 4.1728
178      141.677 1 2 100 -507.085 1.947
179      141.677 1 2 100 -507.085 6.0044
180      141.677 1 2 100 -507.085 3.7786
181      141.677 1 2 100 -505.808 0
182      141.677 1 2 100 -505.808 4.45866
183      141.677 1 2 100 -505.808 2.63414
184      141.677 1 2 100 -505.808 0.809621
185      141.677 1 2 100 -505.808 5.26829
186      141.677 1 2 100 -505.808 3.44376
187      141.677 1 2 100 -505.808 1.61924
188      141.677 1 2 100 -505.808 6.07791
189      141.677 1 2 100 -505.808 4.25338
190      141.677 1 2 100 -505.808 2.42886
191      141.677 1 2 100 -505.808 0.604342
192      141.677 1 2 100 -505.808 5.06301
193      141.677 1 2 100 -505.808 3.23848
194      141.677 1 2 100 -505.808 1.41396
195      141.677 1 2 100 -505.808 5.87263
196      141.677 1 2 100 -505.808 4.04811
197      141.677 1 2 100 -505.808 2.22358
198      141.677 1 2 100 -505.808 0.399063
199      141.677 1 2 100 -505.808 4.85773
200      141.677 1 2 100 -505.808 3.03321
201      141.677 1 2 100 -505.808 1.20868
202      141.677 1 2 100 -505.808 5.66735
203      141.677 1 2 100 -505.808 3.84283
204      141.677 1 2 100 -505.808 2.0183
205      141.677 1 2 100 -505.808 0.193783
206      141.677 1 2 100 -505.808 4.65245
207      141.677 1 2 100 -505.808 2.82793
208      141.677 1 2 100 -505.808 1.0034
209      141.677 1 2 100 -505.808 5.46207
210      141.677 1 2 100 -505.808 3.63755
211      141.677 1 2 100 -505.808 1.81303
212      141.677 1 2 100 -505.808 6.27169
213      141.677 1 2 100 -505.808 4.44717
214      141.677 1 2 100 -505.808 2.62265
215      141.677 1 2 100 -505.808 0.798125
216      141.677 1 2 100 -505.808 5.25679
217      141.677 1 2 100 -504.53 0
218      141.677 1 2 100 -504.53 4.85994
219      141.677 1 2 100 -504.53 3.43669
220      141.677 1 2 100 -504.53 2.01344
221      141.677 1 2 100 -504.53 0.590192
222      141.677 1 2 100 -504.53 5.45013
223      141.677 1 2 100 -504.53 4.02688
224      141.677 1 2 100 -504.53 2.60363
225      141.677 1 2 100 -504.53 1.18038
226      141.677 1 2 100 -504.53 6.04032
227      141.677 1 2 100 -504.53 4.61707
228      141.677 1 2 100 -504.53 3.19382
229      141.677 1 2 100 -504.53 1.77058
230      141.677 1 2 100 -504.53 0.347328
231      141.677 1 2 100 -504.53 5.20727
232      141.677 1 2 100 -504.53 3.78402
233      141.677 1 2 100 -504.53 2.36077
234      141.677 1 2 100 -504.53 0.93752
235      141.677 1 2 100 -504.53 5.79746
236      141.677 1 2 100 -504.53 4.37421
237      141.677 1 2 100 -504.53 2.95096
238      141.677 1 2 100 -504.53 1.52771
239      141.677 1 2 100 -504.53 0.104464
240      141.677 1 2 100 -504.53 4.9644
241      141.677 1 2 100 -504.53 3.54115
242      141.677 1 2 100 -504.53 2.1179
243      141.677 1 2 100 -504.53 0.694656
244      141.677 1 2 100 -504.53 5.55459
245      141.677 1 2 100 -504.53 4.13135
246      141.677 1 2 100 -504.53 2.7081
247      141.677 1 2 100 -504.53 1.28485
248      141.677 1 2 100 -504.53 6.14479
249      141.677 1 2 100 -504.53 4.72154
250      141.677 1 2 100 -504.53 3.29829
251      141.677 1 2 100 -504.53 1.87504
252      141.677 1 2 100 -504.53 0.451792
253      141.677 1 2 100 -503.253 0
254      141.677 1 2 100 -503.253 5.26121
255      141.677 1 2 100 -503.253 4.23923
256      141.677 1 2 100 -503.253 3.21726
257      141.677 1 2 100 -503.253 2.19528
258      141.677 1 2 100 -503.253 1.17331
259      141.677 1 2 100 -503.253 0.151334
260      141.677 1 2 100 -503.253 5.41254
261      141.677 1 2 100 -503.253 4.39057
262      141.677 1 2 100 -503.253 3.36859
263      141.677 1 2 100 -503.253 2.34662
264      141.677 1 2 100 -503.253 1.32464
265      141.677 1 2 100 -503.253 0.302669
266      141.677 1 2 100 -503.253 5.56388
267      141.677 1 2 100 -503.253 4.5419
268      141.677 1 2 100 -503.253 3.51993
269      141.677 1 2 100 -503.253 2.49795
270      141.677 1 2 100 -503.253 1.47598
271      141.677 1 2 100 -503.253 0.454003
272      141.677 1 2 100 -503.253 5.71521
273      141.677 1 2 100 -503.253 4.69324
274      141.677 1 2 100 -503.253 3.67126
275      141.677 1 2 100 -503.253 2.64929
276      141.677 1 2 100 -503.253 1.62731
277      141.677 1 2 100 -503.253 0.605337
278      141.677 1 2 100 -503.253 5.86655
279      141.677 1 2 100 -503.253 4.84457
280      141.677 1 2 100 -503.253 3.8226
281      141.677 1 2 100 -503.253 2.80062
282      141.677 1 2 100 -503.253 1.77865
283      141.677 1 2 100 -503.253 0.756671
284      141.677 1 2 100 -503.253 6.01788
285      141.677 1 2 100 -503.253 4.99591
286      141.677 1 2 100 -503.253 3.97393
287      141.677 1 2 100 -503.253 2.95196
288      141.677 1 2 100 -503.253 1.92998
289      141.677 1 2 100 -501.976 0
290      141.677 1 2 100 -501.976 5.66248
291      141.677 1 2 100 -501.976 5.04178
292      141.677 1 2 100 -501.976 4.42108
293      141.677 1 2 100 -501.976 3.80038
294      141.677 1 2 100 -501.976 3.17968
295      141.677 1 2 100 -501.976 2.55897
296      141.677 1 2 100 -501.976 1.93827
297      141.677 1 2 100 -501.976 1.31757
298      141.677 1 2 100 -501.976 0.696867
299      141.677 1 2 100 -501.976 0.0761648
300      141.677 1 2 100 -501.976 5.73865
301      141.677 1 2 100 -501.976 5.11795
302      141.677 1 2 100 -501.976 4.49724
303      141.677 1 2 100 -501.976 3.87654
304      141.677 1 2 100 -501.976 3.25584
305      141.677 1 2 100 -501.976 2.63514
306      141.677 1 2 100 -501.976 2.01444
307      141.677 1 2 100 -501.976 1.39373
308      141.677 1 2 100 -501.976 0.773032
309      141.677 1 2 100 -501.976 0.15233
310      141.677 1 2 100 -501.976 5.81481
311      141.677 1 2 100 -501.976 5.19411
312      141.677 1 2 100 -501.976 4.57341
313      141.677 1 2 100 -501.976 3.95271
314      141.677 1 2 100 -501.976 3.332
315      141.677 1 2 100 -501.976 2.7113
316      141.677 1 2 100 -501.976 2.0906
317      141.677 1 2 100 -501.976 1.4699
318      141.677 1 2 100 -501.976 0.849196
319      141.677 1 2 100 -501.976 0.228494
320      141.677 1 2 100 -501.976 5.89098
321      141.677 1 2 100 -501.976 5.27028
322      141.677 1 2 100 -501.976 4.64957
323      141.677 1 2 100 -501.976 4.02887
324      141.677 1 2 100 -501.976 3.40817
325      141.677 1 2 100 -500.698 0
326      141.677 1 2 100 -500.698 6.06376
327      141.677 1 2 100 -500.698 5.84433
328      141.677 1 2 100 -500.698 5.6249
329      141.677 1 2 100 -500.698 5.40547
330      141.677 1 2 100 -500.698 5.18604
331      141.677 1 2 100 -500.698 4.96661
332      141.677 1 2 100 -500.698 4.74718
333      141.677 1 2 100 -500.698 4.52775
334      141.677 1 2 100 -500.698 4.30832
335      141.677 1 2 100 -500.698 4.0889
336      141.677 1 2 100 -500.698 3.86947
337      141.677 1 2 100 -500.698 3.65004
338      141.677 1 2 100 -500.698 3.43061
339      141.677 1 2 100 -500.698 3.21118
340      141.677 1 2 100 -500.698 2.99175
341      141.677 1 2 100 -500.698 2.77232
342      141.677 1 2 100 -500.698 2.55289
343      141.677 1 2 100 -500.698 2.33346
344      141.677 1 2 100 -500.698 2.11404
345      141.677 1 2 100 -500.698 1.89461
346      141.677 1 2 100 -500.698 1.67518
347      141.677 1 2 100 -500.698 1.45575
348      141.677 1 2 100 -500.698 1.23632
349      141.677 1 2 100 -500.698 1.01689
350      141.677 1 2 100 -500.698 0.797462
351      141.677 1 2 100 -500.698 0.578033
352      141.677 1 2 100 -500.698 0.358604
353      141.677 1 2 100 -500.698 0.139175
354      141.677 1 2 100 -500.698 6.20293
355      141.677 1 2 100 -500.698 5.9835
356      141.677 1 2 100 -500.698 5.76407
357      141.677 1 2 100 -500.698 5.54464
358      141.677 1 2 100 -500.698 5.32522
359      141.677 1 2 100 -500.698 5.10579
360      141.677 1 2 100 -500.698 4.88636
361      141.677 1 2 100 -499.421 0
362      141.677 1 2 100 -499.421 0.181844
363      141.677 1 2 100 -499.421 0.363688
364      141.677 1 2 100 -499.421 0.545533
365      141.677 1 2 100 -499.421 0.727377
366      141.677 1 2 100 -499.421 0.909221
367      141.677 1 2 100 -499.421 1.09107
368      141.677 1 2 100 -499.421 1.27291
369      141.677 1 2 100 -499.421 1.45475
370      141.677 1 2 100 -499.421 1.6366
371      141.677 1 2 100 -499.421 1.81844
372      141.677 1 2 100 -499.421 2.00029
373      141.677 1 2 100 -499.421 2.18213
374      141.677 1 2 100 -499.421 2.36397
375      141.677 1 2 100 -499.421 2.54582
376      141.677 1 2 100 -499.421 2.72766
377      141.677 1 2 100 -499.421 2.90951
378      141.677 1 2 100 -499.421 3.09135
379      141.677 1 2 100 -499.421 3.2732
380      141.677 1 2 100 -499.421 3.45504
381      141.677 1 2 100 -499.421 3.63688
382      141.677 1 2 100 -499.421 3.81873
383      141.677 1 2 100 -499.421 4.00057
384      141.677 1 2 100 -499.421 4.18242
385      141.677 1 2 100 -499.421 4.36426
386      141.677 1 2 100 -499.421 4.5461
387      141.677 1 2 100 -499.421 4.72795
388      141.677 1 2 100 -499.421 4.90979
389      141.677 1 2 100 -499.421 5.09164
390      141.677 1 2 100 -499.421 5.27348
391      141.677 1 2 100 -499.421 5.45533
392      141.677 1 2 100 -499.421 5.63717
393      141.677 1 2 100 -499.421 5.81901
394      141.677 1 2 100 -499.421 6.00086
395      141.677 1 2 100 -499.421 6.1827
396      141.677 1 2 100 -499.421 0.081361
397      141.677 1 2 100 -498.144 0
398      141.677 1 2 100 -498.144 0.583117
399      141.677 1 2 100 -498.144 1.16623
400      141.677 1 2 100 -498.144 1.74935
401      141.677 1 2 100 -498.144 2.33247
402      141.677 1 2 100 -498.144 2.91559
403      141.677 1 2 100 -498.144 3.4987
404      141.677 1 2 100 -498.144 4.08182
405      141.677 1 2 100 -498.144 4.66494
406      141.677 1 2 100 -498.144 5.24806
407      141.677 1 2 100 -498.144 5.83117
408      141.677 1 2 100 -498.144 0.131105
409      141.677 1 2 100 -498.144 0.714222
410      141.677 1 2 100 -498.144 1.29734
411      141.677 1 2 100 -498.144 1.88046
412      141.677 1 2 100 -498.144 2.46357
413      141.677 1 2 100 -498.144 3.04669
414      141.677 1 2 100 -498.144 3.62981
415      141.677 1 2 100 -498.144 4.21293
416      141.677 1 2 100 -498.144 4.79604
417      141.677 1 2 100 -498.144 5.37916
418      141.677 1 2 100 -498.144 5.96228
419      141.677 1 2 100 -498.144 0.26221
420      141.677 1 2 100 -498.144 0.845327
421      141.677 1 2 100 -498.144 1.42844
422      141.677 1 2 100 -498.144 2.01156
423      141.677 1 2 100 -498.144 2.59468
424      141.677 1 2 100 -498.144 3.1778
425      141.677 1 2 100 -498.144 3.76091
426      141.677 1 2 100 -498.144 4.34403
427      141.677 1 2 100 -498.144 4.92715
428      141.677 1 2 100 -498.144 5.51027
429      141.677 1 2 100 -498.144 6.09338
430      141.677 1 2 100 -498.144 0.393315
431      141.677 1 2 100 -498.144 0.976432
432      141.677 1 2 100 -498.144 1.55955
433      141.677 1 2 100 -496.867 0
434      141.677 1 2 100 -496.867 0.98439
435      141.677 1 2 100 -496.867 1.96878
436      141.677 1 2 100 -496.867 2.95317
437      141.677 1 2 100 -496.867 3.93756
438      141.677 1 2 100 -496.867 4.92195
439      141.677 1 2 100 -496.867 5.90634
440      141.677 1 2 100 -496.867 0.607548
441      141.677 1 2 100 -496.867 1.59194
442      141.677 1 2 100 -496.867 2.57633
443      141.677 1 2 100 -496.867 3.56072
444      141.677 1 2 100 -496.867 4.54511
445      141.677 1 2 100 -496.867 5.5295
446      141.677 1 2 100 -496.867 0.230705
447      141.677 1 2 100 -496.867 1.2151
448      141.677 1 2 100 -496.867 2.19949
449      141.677 1 2 100 -496.867 3.18388
450      141.677 1 2 100 -496.867 4.16827
451      141.677 1 2 100 -496.867 5.15266
452      141.677 1 2 100 -496.867 6.13705
453      141.677 1 2 100 -496.867 0.838252
454      141.677 1 2 100 -496.867 1.82264
455      141.677 1 2 100 -496.867 2.80703
456      141.677 1 2 100 -496.867 3.79142
457      141.677 1 2 100 -496.867 4.77581
458      141.677 1 2 100 -496.867 5.7602
459      141.677 1 2 100 -496.867 0.461409
460      141.677 1 2 100 -496.867 1.4458
461      141.677 1 2 100 -496.867 2.43019
462      141.677 1 2 100 -496.867 3.41458
463      141.677 1 2 100 -496.867 4.39897
464      141.677 1 2 100 -496.867 5.38336
465      141.677 1 2 100 -496.867 0.0845666
466      141.677 1 2 100 -496.867 1.06896
467      141.677 1 2 100 -496.867 2.05335
468      141.677 1 2 100 -496.867 3.03774
469      141.677 1 2 100 -495.589 0
470      141.677 1 2 100 -495.589 1.38566
471      141.677 1 2 100 -495.589 2.77133
472      141.677 1 2 100 -495.589 4.15699
473      141.677 1 2 100 -495.589 5.54265
474      141.677 1 2 100 -495.589 0.645132
475      141.677 1 2 100 -495.589 2.0308
476      141.677 1 2 100 -495.589 3.41646
477      141.677 1 2 100 -495.589 4.80212
478      141.677 1 2 100 -495.589 6.18779
479      141.677 1 2 100 -495.589 1.29026
480      141.677 1 2 100 -495.589 2.67593
481      141.677 1 2 100 -495.589 4.06159
482      141.677 1 2 100 -495.589 5.44726
