# Pulseq sequence file
# Created by MATLAB mr toolbox

# Created for Pulseq-CEST
# https://pulseq-cest.github.io/
# Created by: Kai Herz
# Created at: 29-Jun-2023 13:14:04

[VERSION]
major 1
minor 3
revision 1

[DEFINITIONS]
B0 3 
B1pa 1.78 
B1rms 1.99620497 
DCsat 0.909090909 
FREQ 127.7292 
M0_offset -300 
Trec 3.5 
Trec_M0 3.5 
Tsat 1.975 
n_pulses 36 
num_meas 162 
offsets_ppm -300 -4 -3.95 -3.9 -3.85 -3.8 -3.75 -3.7 -3.65 -3.6 -3.55 -3.5 -3.45 -3.4 -3.35 -3.3 -3.25 -3.2 -3.15 -3.1 -3.05 -3 -2.95 -2.9 -2.85 -2.8 -2.75 -2.7 -2.65 -2.6 -2.55 -2.5 -2.45 -2.4 -2.35 -2.3 -2.25 -2.2 -2.15 -2.1 -2.05 -2 -1.95 -1.9 -1.85 -1.8 -1.75 -1.7 -1.65 -1.6 -1.55 -1.5 -1.45 -1.4 -1.35 -1.3 -1.25 -1.2 -1.15 -1.1 -1.05 -1 -0.95 -0.9 -0.85 -0.8 -0.75 -0.7 -0.65 -0.6 -0.55 -0.5 -0.45 -0.4 -0.35 -0.3 -0.25 -0.2 -0.15 -0.1 -0.05 0 0.05 0.1 0.15 0.2 0.25 0.3 0.35 0.4 0.45 0.5 0.55 0.6 0.65 0.7 0.75 0.8 0.85 0.9 0.95 1 1.05 1.1 1.15 1.2 1.25 1.3 1.35 1.4 1.45 1.5 1.55 1.6 1.65 1.7 1.75 1.8 1.85 1.9 1.95 2 2.05 2.1 2.15 2.2 2.25 2.3 2.35 2.4 2.45 2.5 2.55 2.6 2.65 2.7 2.75 2.8 2.85 2.9 2.95 3 3.05 3.1 3.15 3.2 3.25 3.3 3.35 3.4 3.45 3.5 3.55 3.6 3.65 3.7 3.75 3.8 3.85 3.9 3.95 4 
seq_id_string  
spoiling 1 
td 0.005 
tp 0.05 

# Format of blocks:
#  #  D RF  GX  GY  GZ ADC EXT
[BLOCKS]
    1  1  0   0   0   0  0  0
    2  0  1   0   0   0  0  0
    3  2  0   0   0   0  0  0
    4  0  2   0   0   0  0  0
    5  2  0   0   0   0  0  0
    6  0  3   0   0   0  0  0
    7  2  0   0   0   0  0  0
    8  0  4   0   0   0  0  0
    9  2  0   0   0   0  0  0
   10  0  5   0   0   0  0  0
   11  2  0   0   0   0  0  0
   12  0  6   0   0   0  0  0
   13  2  0   0   0   0  0  0
   14  0  7   0   0   0  0  0
   15  2  0   0   0   0  0  0
   16  0  8   0   0   0  0  0
   17  2  0   0   0   0  0  0
   18  0  9   0   0   0  0  0
   19  2  0   0   0   0  0  0
   20  0 10   0   0   0  0  0
   21  2  0   0   0   0  0  0
   22  0 11   0   0   0  0  0
   23  2  0   0   0   0  0  0
   24  0 12   0   0   0  0  0
   25  2  0   0   0   0  0  0
   26  0 13   0   0   0  0  0
   27  2  0   0   0   0  0  0
   28  0 14   0   0   0  0  0
   29  2  0   0   0   0  0  0
   30  0 15   0   0   0  0  0
   31  2  0   0   0   0  0  0
   32  0 16   0   0   0  0  0
   33  2  0   0   0   0  0  0
   34  0 17   0   0   0  0  0
   35  2  0   0   0   0  0  0
   36  0 18   0   0   0  0  0
   37  2  0   0   0   0  0  0
   38  0 19   0   0   0  0  0
   39  2  0   0   0   0  0  0
   40  0 20   0   0   0  0  0
   41  2  0   0   0   0  0  0
   42  0 21   0   0   0  0  0
   43  2  0   0   0   0  0  0
   44  0 22   0   0   0  0  0
   45  2  0   0   0   0  0  0
   46  0 23   0   0   0  0  0
   47  2  0   0   0   0  0  0
   48  0 24   0   0   0  0  0
   49  2  0   0   0   0  0  0
   50  0 25   0   0   0  0  0
   51  2  0   0   0   0  0  0
   52  0 26   0   0   0  0  0
   53  2  0   0   0   0  0  0
   54  0 27   0   0   0  0  0
   55  2  0   0   0   0  0  0
   56  0 28   0   0   0  0  0
   57  2  0   0   0   0  0  0
   58  0 29   0   0   0  0  0
   59  2  0   0   0   0  0  0
   60  0 30   0   0   0  0  0
   61  2  0   0   0   0  0  0
   62  0 31   0   0   0  0  0
   63  2  0   0   0   0  0  0
   64  0 32   0   0   0  0  0
   65  2  0   0   0   0  0  0
   66  0 33   0   0   0  0  0
   67  2  0   0   0   0  0  0
   68  0 34   0   0   0  0  0
   69  2  0   0   0   0  0  0
   70  0 35   0   0   0  0  0
   71  2  0   0   0   0  0  0
   72  0 36   0   0   0  0  0
   73  0  0   1   1   1  0  0
   74  0  0   0   0   0  1  0
   75  1  0   0   0   0  0  0
   76  0 37   0   0   0  0  0
   77  2  0   0   0   0  0  0
   78  0 38   0   0   0  0  0
   79  2  0   0   0   0  0  0
   80  0 39   0   0   0  0  0
   81  2  0   0   0   0  0  0
   82  0 40   0   0   0  0  0
   83  2  0   0   0   0  0  0
   84  0 41   0   0   0  0  0
   85  2  0   0   0   0  0  0
   86  0 42   0   0   0  0  0
   87  2  0   0   0   0  0  0
   88  0 43   0   0   0  0  0
   89  2  0   0   0   0  0  0
   90  0 44   0   0   0  0  0
   91  2  0   0   0   0  0  0
   92  0 45   0   0   0  0  0
   93  2  0   0   0   0  0  0
   94  0 46   0   0   0  0  0
   95  2  0   0   0   0  0  0
   96  0 47   0   0   0  0  0
   97  2  0   0   0   0  0  0
   98  0 48   0   0   0  0  0
   99  2  0   0   0   0  0  0
  100  0 49   0   0   0  0  0
  101  2  0   0   0   0  0  0
  102  0 50   0   0   0  0  0
  103  2  0   0   0   0  0  0
  104  0 51   0   0   0  0  0
  105  2  0   0   0   0  0  0
  106  0 52   0   0   0  0  0
  107  2  0   0   0   0  0  0
  108  0 53   0   0   0  0  0
  109  2  0   0   0   0  0  0
  110  0 54   0   0   0  0  0
  111  2  0   0   0   0  0  0
  112  0 55   0   0   0  0  0
  113  2  0   0   0   0  0  0
  114  0 56   0   0   0  0  0
  115  2  0   0   0   0  0  0
  116  0 57   0   0   0  0  0
  117  2  0   0   0   0  0  0
  118  0 58   0   0   0  0  0
  119  2  0   0   0   0  0  0
  120  0 59   0   0   0  0  0
  121  2  0   0   0   0  0  0
  122  0 60   0   0   0  0  0
  123  2  0   0   0   0  0  0
  124  0 61   0   0   0  0  0
  125  2  0   0   0   0  0  0
  126  0 62   0   0   0  0  0
  127  2  0   0   0   0  0  0
  128  0 63   0   0   0  0  0
  129  2  0   0   0   0  0  0
  130  0 64   0   0   0  0  0
  131  2  0   0   0   0  0  0
  132  0 65   0   0   0  0  0
  133  2  0   0   0   0  0  0
  134  0 66   0   0   0  0  0
  135  2  0   0   0   0  0  0
  136  0 67   0   0   0  0  0
  137  2  0   0   0   0  0  0
  138  0 68   0   0   0  0  0
  139  2  0   0   0   0  0  0
  140  0 69   0   0   0  0  0
  141  2  0   0   0   0  0  0
  142  0 70   0   0   0  0  0
  143  2  0   0   0   0  0  0
  144  0 71   0   0   0  0  0
  145  2  0   0   0   0  0  0
  146  0 72   0   0   0  0  0
  147  0  0   1   1   1  0  0
  148  0  0   0   0   0  1  0
  149  1  0   0   0   0  0  0
  150  0 73   0   0   0  0  0
  151  2  0   0   0   0  0  0
  152  0 74   0   0   0  0  0
  153  2  0   0   0   0  0  0
  154  0 75   0   0   0  0  0
  155  2  0   0   0   0  0  0
  156  0 76   0   0   0  0  0
  157  2  0   0   0   0  0  0
  158  0 77   0   0   0  0  0
  159  2  0   0   0   0  0  0
  160  0 78   0   0   0  0  0
  161  2  0   0   0   0  0  0
  162  0 79   0   0   0  0  0
  163  2  0   0   0   0  0  0
  164  0 80   0   0   0  0  0
  165  2  0   0   0   0  0  0
  166  0 81   0   0   0  0  0
  167  2  0   0   0   0  0  0
  168  0 82   0   0   0  0  0
  169  2  0   0   0   0  0  0
  170  0 83   0   0   0  0  0
  171  2  0   0   0   0  0  0
  172  0 84   0   0   0  0  0
  173  2  0   0   0   0  0  0
  174  0 85   0   0   0  0  0
  175  2  0   0   0   0  0  0
  176  0 86   0   0   0  0  0
  177  2  0   0   0   0  0  0
  178  0 87   0   0   0  0  0
  179  2  0   0   0   0  0  0
  180  0 88   0   0   0  0  0
  181  2  0   0   0   0  0  0
  182  0 89   0   0   0  0  0
  183  2  0   0   0   0  0  0
  184  0 90   0   0   0  0  0
  185  2  0   0   0   0  0  0
  186  0 91   0   0   0  0  0
  187  2  0   0   0   0  0  0
  188  0 92   0   0   0  0  0
  189  2  0   0   0   0  0  0
  190  0 93   0   0   0  0  0
  191  2  0   0   0   0  0  0
  192  0 94   0   0   0  0  0
  193  2  0   0   0   0  0  0
  194  0 95   0   0   0  0  0
  195  2  0   0   0   0  0  0
  196  0 96   0   0   0  0  0
  197  2  0   0   0   0  0  0
  198  0 97   0   0   0  0  0
  199  2  0   0   0   0  0  0
  200  0 98   0   0   0  0  0
  201  2  0   0   0   0  0  0
  202  0 99   0   0   0  0  0
  203  2  0   0   0   0  0  0
  204  0 100   0   0   0  0  0
  205  2  0   0   0   0  0  0
  206  0 101   0   0   0  0  0
  207  2  0   0   0   0  0  0
  208  0 102   0   0   0  0  0
  209  2  0   0   0   0  0  0
  210  0 103   0   0   0  0  0
  211  2  0   0   0   0  0  0
  212  0 104   0   0   0  0  0
  213  2  0   0   0   0  0  0
  214  0 105   0   0   0  0  0
  215  2  0   0   0   0  0  0
  216  0 106   0   0   0  0  0
  217  2  0   0   0   0  0  0
  218  0 107   0   0   0  0  0
  219  2  0   0   0   0  0  0
  220  0 108   0   0   0  0  0
  221  0  0   1   1   1  0  0
  222  0  0   0   0   0  1  0
  223  1  0   0   0   0  0  0
  224  0 109   0   0   0  0  0
  225  2  0   0   0   0  0  0
  226  0 110   0   0   0  0  0
  227  2  0   0   0   0  0  0
  228  0 111   0   0   0  0  0
  229  2  0   0   0   0  0  0
  230  0 112   0   0   0  0  0
  231  2  0   0   0   0  0  0
  232  0 113   0   0   0  0  0
  233  2  0   0   0   0  0  0
  234  0 114   0   0   0  0  0
  235  2  0   0   0   0  0  0
  236  0 115   0   0   0  0  0
  237  2  0   0   0   0  0  0
  238  0 116   0   0   0  0  0
  239  2  0   0   0   0  0  0
  240  0 117   0   0   0  0  0
  241  2  0   0   0   0  0  0
  242  0 118   0   0   0  0  0
  243  2  0   0   0   0  0  0
  244  0 119   0   0   0  0  0
  245  2  0   0   0   0  0  0
  246  0 120   0   0   0  0  0
  247  2  0   0   0   0  0  0
  248  0 121   0   0   0  0  0
  249  2  0   0   0   0  0  0
  250  0 122   0   0   0  0  0
  251  2  0   0   0   0  0  0
  252  0 123   0   0   0  0  0
  253  2  0   0   0   0  0  0
  254  0 124   0   0   0  0  0
  255  2  0   0   0   0  0  0
  256  0 125   0   0   0  0  0
  257  2  0   0   0   0  0  0
  258  0 126   0   0   0  0  0
  259  2  0   0   0   0  0  0
  260  0 127   0   0   0  0  0
  261  2  0   0   0   0  0  0
  262  0 128   0   0   0  0  0
  263  2  0   0   0   0  0  0
  264  0 129   0   0   0  0  0
  265  2  0   0   0   0  0  0
  266  0 130   0   0   0  0  0
  267  2  0   0   0   0  0  0
  268  0 131   0   0   0  0  0
  269  2  0   0   0   0  0  0
  270  0 132   0   0   0  0  0
  271  2  0   0   0   0  0  0
  272  0 133   0   0   0  0  0
  273  2  0   0   0   0  0  0
  274  0 134   0   0   0  0  0
  275  2  0   0   0   0  0  0
  276  0 135   0   0   0  0  0
  277  2  0   0   0   0  0  0
  278  0 136   0   0   0  0  0
  279  2  0   0   0   0  0  0
  280  0 137   0   0   0  0  0
  281  2  0   0   0   0  0  0
  282  0 138   0   0   0  0  0
  283  2  0   0   0   0  0  0
  284  0 139   0   0   0  0  0
  285  2  0   0   0   0  0  0
  286  0 140   0   0   0  0  0
  287  2  0   0   0   0  0  0
  288  0 141   0   0   0  0  0
  289  2  0   0   0   0  0  0
[RF]
1      141.677 1 2 100 -38318.8 0
2      141.677 1 2 100 -38318.8 0.389557
3      141.677 1 2 100 -38318.8 0.779115
4      141.677 1 2 100 -38318.8 1.16867
5      141.677 1 2 100 -38318.8 1.55823
6      141.677 1 2 100 -38318.8 1.94779
7      141.677 1 2 100 -38318.8 2.33734
8      141.677 1 2 100 -38318.8 2.7269
9      141.677 1 2 100 -38318.8 3.11646
10      141.677 1 2 100 -38318.8 3.50602
11      141.677 1 2 100 -38318.8 3.89557
12      141.677 1 2 100 -38318.8 4.28513
13      141.677 1 2 100 -38318.8 4.67469
14      141.677 1 2 100 -38318.8 5.06425
15      141.677 1 2 100 -38318.8 5.4538
16      141.677 1 2 100 -38318.8 5.84336
17      141.677 1 2 100 -38318.8 6.23292
18      141.677 1 2 100 -38318.8 0.339292
19      141.677 1 2 100 -38318.8 0.728849
20      141.677 1 2 100 -38318.8 1.11841
21      141.677 1 2 100 -38318.8 1.50796
22      141.677 1 2 100 -38318.8 1.89752
23      141.677 1 2 100 -38318.8 2.28708
24      141.677 1 2 100 -38318.8 2.67664
25      141.677 1 2 100 -38318.8 3.06619
26      141.677 1 2 100 -38318.8 3.45575
27      141.677 1 2 100 -38318.8 3.84531
28      141.677 1 2 100 -38318.8 4.23487
29      141.677 1 2 100 -38318.8 4.62442
30      141.677 1 2 100 -38318.8 5.01398
31      141.677 1 2 100 -38318.8 5.40354
32      141.677 1 2 100 -38318.8 5.7931
33      141.677 1 2 100 -38318.8 6.18265
34      141.677 1 2 100 -38318.8 0.289027
35      141.677 1 2 100 -38318.8 0.678584
36      141.677 1 2 100 -38318.8 1.06814
37      141.677 1 2 100 -510.917 0
38      141.677 1 2 100 -510.917 2.85357
39      141.677 1 2 100 -510.917 5.70714
40      141.677 1 2 100 -510.917 2.27753
41      141.677 1 2 100 -510.917 5.1311
42      141.677 1 2 100 -510.917 1.70149
43      141.677 1 2 100 -510.917 4.55506
44      141.677 1 2 100 -510.917 1.12544
45      141.677 1 2 100 -510.917 3.97902
46      141.677 1 2 100 -510.917 0.549402
47      141.677 1 2 100 -510.917 3.40297
48      141.677 1 2 100 -510.917 6.25654
49      141.677 1 2 100 -510.917 2.82693
50      141.677 1 2 100 -510.917 5.6805
51      141.677 1 2 100 -510.917 2.25089
52      141.677 1 2 100 -510.917 5.10446
53      141.677 1 2 100 -510.917 1.67485
54      141.677 1 2 100 -510.917 4.52842
55      141.677 1 2 100 -510.917 1.0988
56      141.677 1 2 100 -510.917 3.95237
57      141.677 1 2 100 -510.917 0.522761
58      141.677 1 2 100 -510.917 3.37633
59      141.677 1 2 100 -510.917 6.2299
60      141.677 1 2 100 -510.917 2.80029
61      141.677 1 2 100 -510.917 5.65386
62      141.677 1 2 100 -510.917 2.22425
63      141.677 1 2 100 -510.917 5.07782
64      141.677 1 2 100 -510.917 1.64821
65      141.677 1 2 100 -510.917 4.50178
66      141.677 1 2 100 -510.917 1.07216
67      141.677 1 2 100 -510.917 3.92573
68      141.677 1 2 100 -510.917 0.49612
69      141.677 1 2 100 -510.917 3.34969
70      141.677 1 2 100 -510.917 6.20326
71      141.677 1 2 100 -510.917 2.77365
72      141.677 1 2 100 -510.917 5.62722
73      141.677 1 2 100 -504.53 0
74      141.677 1 2 100 -504.53 4.85994
75      141.677 1 2 100 -504.53 3.43669
76      141.677 1 2 100 -504.53 2.01344
77      141.677 1 2 100 -504.53 0.590192
78      141.677 1 2 100 -504.53 5.45013
79      141.677 1 2 100 -504.53 4.02688
80      141.677 1 2 100 -504.53 2.60363
81      141.677 1 2 100 -504.53 1.18038
82      141.677 1 2 100 -504.53 6.04032
83      141.677 1 2 100 -504.53 4.61707
84      141.677 1 2 100 -504.53 3.19382
85      141.677 1 2 100 -504.53 1.77058
86      141.677 1 2 100 -504.53 0.347328
87      141.677 1 2 100 -504.53 5.20727
88      141.677 1 2 100 -504.53 3.78402
89      141.677 1 2 100 -504.53 2.36077
90      141.677 1 2 100 -504.53 0.93752
91      141.677 1 2 100 -504.53 5.79746
92      141.677 1 2 100 -504.53 4.37421
93      141.677 1 2 100 -504.53 2.95096
94      141.677 1 2 100 -504.53 1.52771
95      141.677 1 2 100 -504.53 0.104464
96      141.677 1 2 100 -504.53 4.9644
97      141.677 1 2 100 -504.53 3.54115
98      141.677 1 2 100 -504.53 2.1179
99      141.677 1 2 100 -504.53 0.694656
100      141.677 1 2 100 -504.53 5.55459
101      141.677 1 2 100 -504.53 4.13135
102      141.677 1 2 100 -504.53 2.7081
103      141.677 1 2 100 -504.53 1.28485
104      141.677 1 2 100 -504.53 6.14479
105      141.677 1 2 100 -504.53 4.72154
106      141.677 1 2 100 -504.53 3.29829
107      141.677 1 2 100 -504.53 1.87504
108      141.677 1 2 100 -504.53 0.451792
109      141.677 1 2 100 -498.144 0
110      141.677 1 2 100 -498.144 0.583117
111      141.677 1 2 100 -498.144 1.16623
112      141.677 1 2 100 -498.144 1.74935
113      141.677 1 2 100 -498.144 2.33247
114      141.677 1 2 100 -498.144 2.91559
115      141.677 1 2 100 -498.144 3.4987
116      141.677 1 2 100 -498.144 4.08182
117      141.677 1 2 100 -498.144 4.66494
118      141.677 1 2 100 -498.144 5.24806
119      141.677 1 2 100 -498.144 5.83117
120      141.677 1 2 100 -498.144 0.131105
121      141.677 1 2 100 -498.144 0.714222
122      141.677 1 2 100 -498.144 1.29734
123      141.677 1 2 100 -498.144 1.88046
124      141.677 1 2 100 -498.144 2.46357
125      141.677 1 2 100 -498.144 3.04669
126      141.677 1 2 100 -498.144 3.62981
127      141.677 1 2 100 -498.144 4.21293
128      141.677 1 2 100 -498.144 4.79604
129      141.677 1 2 100 -498.144 5.37916
130      141.677 1 2 100 -498.144 5.96228
131      141.677 1 2 100 -498.144 0.26221
132      141.677 1 2 100 -498.144 0.845327
133      141.677 1 2 100 -498.144 1.42844
134      141.677 1 2 100 -498.144 2.01156
135      141.677 1 2 100 -498.144 2.59468
136      141.677 1 2 100 -498.144 3.1778
137      141.677 1 2 100 -498.144 3.76091
138      141.677 1 2 100 -498.144 4.34403
139      141.677 1 2 100 -498.144 4.92715
140      141.677 1 2 100 -498.144 5.51027
141      141.677 1 2 100 -498.144 6.09338
142      141.677 1 2 100 -498.144 0.393315
143      141.677 1 2 100 -498.144 0.976432
144      141.677 1 2 100 -498.144 1.55955
145      141.677 1 2 100 -491.757 0
146      141.677 1 2 100 -491.757 2.58948
147      141.677 1 2 100 -491.757 5.17897
148      141.677 1 2 100 -491.757 1.48526
149      141.677 1 2 100 -491.757 4.07475
150      141.677 1 2 100 -491.757 0.381044
151      141.677 1 2 100 -491.757 2.97053
152      141.677 1 2 100 -491.757 5.56001
153      141.677 1 2 100 -491.757 1.86631
154      141.677 1 2 100 -491.757 4.45579
155      141.677 1 2 100 -491.757 0.762088
156      141.677 1 2 100 -491.757 3.35157
157      141.677 1 2 100 -491.757 5.94105
158      141.677 1 2 100 -491.757 2.24735
159      141.677 1 2 100 -491.757 4.83683
160      141.677 1 2 100 -491.757 1.14313
161      141.677 1 2 100 -491.757 3.73261
162      141.677 1 2 100 -491.757 0.0389118
163      141.677 1 2 100 -491.757 2.62839
164      141.677 1 2 100 -491.757 5.21788
165      141.677 1 2 100 -491.757 1.52418
166      141.677 1 2 100 -491.757 4.11366
167      141.677 1 2 100 -491.757 0.419956
168      141.677 1 2 100 -491.757 3.00944
169      141.677 1 2 100 -491.757 5.59892
170      141.677 1 2 100 -491.757 1.90522
171      141.677 1 2 100 -491.757 4.4947
172      141.677 1 2 100 -491.757 0.800999
173      141.677 1 2 100 -491.757 3.39048
174      141.677 1 2 100 -491.757 5.97997
175      141.677 1 2 100 -491.757 2.28626
176      141.677 1 2 100 -491.757 4.87575
177      141.677 1 2 100 -491.757 1.18204
178      141.677 1 2 100 -491.757 3.77153
179      141.677 1 2 100 -491.757 0.0778235
180      141.677 1 2 100 -491.757 2.66731
181      141.677 1 2 100 -485.371 0
182      141.677 1 2 100 -485.371 4.59585
183      141.677 1 2 100 -485.371 2.90851
184      141.677 1 2 100 -485.371 1.22117
185      141.677 1 2 100 -485.371 5.81702
186      141.677 1 2 100 -485.371 4.12969
187      141.677 1 2 100 -485.371 2.44235
188      141.677 1 2 100 -485.371 0.755013
189      141.677 1 2 100 -485.371 5.35086
190      141.677 1 2 100 -485.371 3.66352
191      141.677 1 2 100 -485.371 1.97619
192      141.677 1 2 100 -485.371 0.288851
193      141.677 1 2 100 -485.371 4.8847
194      141.677 1 2 100 -485.371 3.19736
195      141.677 1 2 100 -485.371 1.51003
196      141.677 1 2 100 -485.371 6.10587
197      141.677 1 2 100 -485.371 4.41854
198      141.677 1 2 100 -485.371 2.7312
199      141.677 1 2 100 -485.371 1.04386
200      141.677 1 2 100 -485.371 5.63971
201      141.677 1 2 100 -485.371 3.95237
202      141.677 1 2 100 -485.371 2.26504
203      141.677 1 2 100 -485.371 0.577701
204      141.677 1 2 100 -485.371 5.17355
205      141.677 1 2 100 -485.371 3.48621
206      141.677 1 2 100 -485.371 1.79888
207      141.677 1 2 100 -485.371 0.111539
208      141.677 1 2 100 -485.371 4.70739
209      141.677 1 2 100 -485.371 3.02005
210      141.677 1 2 100 -485.371 1.33271
211      141.677 1 2 100 -485.371 5.92856
212      141.677 1 2 100 -485.371 4.24123
213      141.677 1 2 100 -485.371 2.55389
214      141.677 1 2 100 -485.371 0.866552
215      141.677 1 2 100 -485.371 5.4624
216      141.677 1 2 100 -485.371 3.77506
217      141.677 1 2 100 -478.985 0
218      141.677 1 2 100 -478.985 0.319029
219      141.677 1 2 100 -478.985 0.638057
220      141.677 1 2 100 -478.985 0.957086
221      141.677 1 2 100 -478.985 1.27611
222      141.677 1 2 100 -478.985 1.59514
223      141.677 1 2 100 -478.985 1.91417
224      141.677 1 2 100 -478.985 2.2332
225      141.677 1 2 100 -478.985 2.55223
226      141.677 1 2 100 -478.985 2.87126
227      141.677 1 2 100 -478.985 3.19029
228      141.677 1 2 100 -478.985 3.50932
229      141.677 1 2 100 -478.985 3.82834
230      141.677 1 2 100 -478.985 4.14737
231      141.677 1 2 100 -478.985 4.4664
232      141.677 1 2 100 -478.985 4.78543
233      141.677 1 2 100 -478.985 5.10446
234      141.677 1 2 100 -478.985 5.42349
235      141.677 1 2 100 -478.985 5.74252
236      141.677 1 2 100 -478.985 6.06155
237      141.677 1 2 100 -478.985 0.0973894
238      141.677 1 2 100 -478.985 0.416418
239      141.677 1 2 100 -478.985 0.735447
240      141.677 1 2 100 -478.985 1.05448
241      141.677 1 2 100 -478.985 1.3735
242      141.677 1 2 100 -478.985 1.69253
243      141.677 1 2 100 -478.985 2.01156
244      141.677 1 2 100 -478.985 2.33059
245      141.677 1 2 100 -478.985 2.64962
246      141.677 1 2 100 -478.985 2.96865
247      141.677 1 2 100 -478.985 3.28768
248      141.677 1 2 100 -478.985 3.60671
249      141.677 1 2 100 -478.985 3.92573
250      141.677 1 2 100 -478.985 4.24476
251      141.677 1 2 100 -478.985 4.56379
252      141.677 1 2 100 -478.985 4.88282
253      141.677 1 2 100 -472.598 0
254      141.677 1 2 100 -472.598 2.32539
255      141.677 1 2 100 -472.598 4.65079
256      141.677 1 2 100 -472.598 0.692998
257      141.677 1 2 100 -472.598 3.01839
258      141.677 1 2 100 -472.598 5.34379
259      141.677 1 2 100 -472.598 1.386
260      141.677 1 2 100 -472.598 3.71139
261      141.677 1 2 100 -472.598 6.03678
262      141.677 1 2 100 -472.598 2.07899
263      141.677 1 2 100 -472.598 4.40439
264      141.677 1 2 100 -472.598 0.446596
265      141.677 1 2 100 -472.598 2.77199
266      141.677 1 2 100 -472.598 5.09738
267      141.677 1 2 100 -472.598 1.13959
268      141.677 1 2 100 -472.598 3.46499
269      141.677 1 2 100 -472.598 5.79038
270      141.677 1 2 100 -472.598 1.83259
271      141.677 1 2 100 -472.598 4.15799
272      141.677 1 2 100 -472.598 0.200195
273      141.677 1 2 100 -472.598 2.52559
274      141.677 1 2 100 -472.598 4.85098
275      141.677 1 2 100 -472.598 0.893192
276      141.677 1 2 100 -472.598 3.21859
277      141.677 1 2 100 -472.598 5.54398
278      141.677 1 2 100 -472.598 1.58619
279      141.677 1 2 100 -472.598 3.91158
280      141.677 1 2 100 -472.598 6.23698
281      141.677 1 2 100 -472.598 2.27919
282      141.677 1 2 100 -472.598 4.60458
283      141.677 1 2 100 -472.598 0.646791
284      141.677 1 2 100 -472.598 2.97219
285      141.677 1 2 100 -472.598 5.29758
286      141.677 1 2 100 -472.598 1.33979
287      141.677 1 2 100 -472.598 3.66518
288      141.677 1 2 100 -472.598 5.99058
289      141.677 1 2 100 -466.212 0
290      141.677 1 2 100 -466.212 4.33176
291      141.677 1 2 100 -466.212 2.38033
292      141.677 1 2 100 -466.212 0.428909
293      141.677 1 2 100 -466.212 4.76067
294      141.677 1 2 100 -466.212 2.80924
295      141.677 1 2 100 -466.212 0.857818
296      141.677 1 2 100 -466.212 5.18958
297      141.677 1 2 100 -466.212 3.23815
298      141.677 1 2 100 -466.212 1.28673
299      141.677 1 2 100 -466.212 5.61849
300      141.677 1 2 100 -466.212 3.66706
301      141.677 1 2 100 -466.212 1.71564
302      141.677 1 2 100 -466.212 6.0474
303      141.677 1 2 100 -466.212 4.09597
304      141.677 1 2 100 -466.212 2.14455
305      141.677 1 2 100 -466.212 0.19312
306      141.677 1 2 100 -466.212 4.52488
307      141.677 1 2 100 -466.212 2.57345
308      141.677 1 2 100 -466.212 0.622029
309      141.677 1 2 100 -466.212 4.95379
310      141.677 1 2 100 -466.212 3.00236
311      141.677 1 2 100 -466.212 1.05094
312      141.677 1 2 100 -466.212 5.3827
313      141.677 1 2 100 -466.212 3.43127
314      141.677 1 2 100 -466.212 1.47985
315      141.677 1 2 100 -466.212 5.81161
316      141.677 1 2 100 -466.212 3.86018
317      141.677 1 2 100 -466.212 1.90876
318      141.677 1 2 100 -466.212 6.24052
319      141.677 1 2 100 -466.212 4.28909
320      141.677 1 2 100 -466.212 2.33767
321      141.677 1 2 100 -466.212 0.38624
322      141.677 1 2 100 -466.212 4.718
323      141.677 1 2 100 -466.212 2.76657
324      141.677 1 2 100 -466.212 0.815149
325      141.677 1 2 100 -459.825 0
326      141.677 1 2 100 -459.825 0.0549402
327      141.677 1 2 100 -459.825 0.10988
328      141.677 1 2 100 -459.825 0.164821
329      141.677 1 2 100 -459.825 0.219761
330      141.677 1 2 100 -459.825 0.274701
331      141.677 1 2 100 -459.825 0.329641
332      141.677 1 2 100 -459.825 0.384581
333      141.677 1 2 100 -459.825 0.439521
334      141.677 1 2 100 -459.825 0.494462
335      141.677 1 2 100 -459.825 0.549402
336      141.677 1 2 100 -459.825 0.604342
337      141.677 1 2 100 -459.825 0.659282
338      141.677 1 2 100 -459.825 0.714222
339      141.677 1 2 100 -459.825 0.769162
340      141.677 1 2 100 -459.825 0.824103
341      141.677 1 2 100 -459.825 0.879043
342      141.677 1 2 100 -459.825 0.933983
343      141.677 1 2 100 -459.825 0.988923
344      141.677 1 2 100 -459.825 1.04386
345      141.677 1 2 100 -459.825 1.0988
346      141.677 1 2 100 -459.825 1.15374
347      141.677 1 2 100 -459.825 1.20868
348      141.677 1 2 100 -459.825 1.26362
349      141.677 1 2 100 -459.825 1.31856
350      141.677 1 2 100 -459.825 1.3735
351      141.677 1 2 100 -459.825 1.42844
352      141.677 1 2 100 -459.825 1.48338
353      141.677 1 2 100 -459.825 1.53832
354      141.677 1 2 100 -459.825 1.59326
355      141.677 1 2 100 -459.825 1.64821
356      141.677 1 2 100 -459.825 1.70315
357      141.677 1 2 100 -459.825 1.75809
358      141.677 1 2 100 -459.825 1.81303
359      141.677 1 2 100 -459.825 1.86797
360      141.677 1 2 100 -459.825 1.92291
361      141.677 1 2 100 -453.439 0
362      141.677 1 2 100 -453.439 2.06131
363      141.677 1 2 100 -453.439 4.12261
364      141.677 1 2 100 -453.439 6.18392
365      141.677 1 2 100 -453.439 1.96204
366      141.677 1 2 100 -453.439 4.02334
367      141.677 1 2 100 -453.439 6.08465
368      141.677 1 2 100 -453.439 1.86277
369      141.677 1 2 100 -453.439 3.92408
370      141.677 1 2 100 -453.439 5.98538
371      141.677 1 2 100 -453.439 1.7635
372      141.677 1 2 100 -453.439 3.82481
373      141.677 1 2 100 -453.439 5.88611
374      141.677 1 2 100 -453.439 1.66423
375      141.677 1 2 100 -453.439 3.72554
376      141.677 1 2 100 -453.439 5.78685
377      141.677 1 2 100 -453.439 1.56497
378      141.677 1 2 100 -453.439 3.62627
379      141.677 1 2 100 -453.439 5.68758
380      141.677 1 2 100 -453.439 1.4657
381      141.677 1 2 100 -453.439 3.527
382      141.677 1 2 100 -453.439 5.58831
383      141.677 1 2 100 -453.439 1.36643
384      141.677 1 2 100 -453.439 3.42774
385      141.677 1 2 100 -453.439 5.48904
386      141.677 1 2 100 -453.439 1.26716
387      141.677 1 2 100 -453.439 3.32847
388      141.677 1 2 100 -453.439 5.38977
389      141.677 1 2 100 -453.439 1.16789
390      141.677 1 2 100 -453.439 3.2292
391      141.677 1 2 100 -453.439 5.2905
392      141.677 1 2 100 -453.439 1.06863
393      141.677 1 2 100 -453.439 3.12993
394      141.677 1 2 100 -453.439 5.19124
395      141.677 1 2 100 -453.439 0.969357
396      141.677 1 2 100 -453.439 3.03066
397      141.677 1 2 100 -447.052 0
398      141.677 1 2 100 -447.052 4.06767
399      141.677 1 2 100 -447.052 1.85216
400      141.677 1 2 100 -447.052 5.91983
401      141.677 1 2 100 -447.052 3.70431
402      141.677 1 2 100 -447.052 1.4888
403      141.677 1 2 100 -447.052 5.55647
404      141.677 1 2 100 -447.052 3.34096
405      141.677 1 2 100 -447.052 1.12544
406      141.677 1 2 100 -447.052 5.19312
407      141.677 1 2 100 -447.052 2.9776
408      141.677 1 2 100 -447.052 0.762088
409      141.677 1 2 100 -447.052 4.82976
410      141.677 1 2 100 -447.052 2.61424
411      141.677 1 2 100 -447.052 0.398731
412      141.677 1 2 100 -447.052 4.4664
413      141.677 1 2 100 -447.052 2.25089
414      141.677 1 2 100 -447.052 0.0353743
415      141.677 1 2 100 -447.052 4.10305
416      141.677 1 2 100 -447.052 1.88753
417      141.677 1 2 100 -447.052 5.9552
418      141.677 1 2 100 -447.052 3.73969
419      141.677 1 2 100 -447.052 1.52418
420      141.677 1 2 100 -447.052 5.59185
421      141.677 1 2 100 -447.052 3.37633
422      141.677 1 2 100 -447.052 1.16082
423      141.677 1 2 100 -447.052 5.22849
424      141.677 1 2 100 -447.052 3.01298
425      141.677 1 2 100 -447.052 0.797462
426      141.677 1 2 100 -447.052 4.86513
427      141.677 1 2 100 -447.052 2.64962
428      141.677 1 2 100 -447.052 0.434105
429      141.677 1 2 100 -447.052 4.50178
430      141.677 1 2 100 -447.052 2.28626
431      141.677 1 2 100 -447.052 0.0707487
432      141.677 1 2 100 -447.052 4.13842
433      141.677 1 2 100 -440.666 0
434      141.677 1 2 100 -440.666 6.07404
435      141.677 1 2 100 -440.666 5.86489
436      141.677 1 2 100 -440.666 5.65574
437      141.677 1 2 100 -440.666 5.44659
438      141.677 1 2 100 -440.666 5.23744
439      141.677 1 2 100 -440.666 5.02829
440      141.677 1 2 100 -440.666 4.81915
441      141.677 1 2 100 -440.666 4.61
442      141.677 1 2 100 -440.666 4.40085
443      141.677 1 2 100 -440.666 4.1917
444      141.677 1 2 100 -440.666 3.98255
445      141.677 1 2 100 -440.666 3.7734
446      141.677 1 2 100 -440.666 3.56426
447      141.677 1 2 100 -440.666 3.35511
448      141.677 1 2 100 -440.666 3.14596
449      141.677 1 2 100 -440.666 2.93681
450      141.677 1 2 100 -440.666 2.72766
451      141.677 1 2 100 -440.666 2.51851
452      141.677 1 2 100 -440.666 2.30937
453      141.677 1 2 100 -440.666 2.10022
454      141.677 1 2 100 -440.666 1.89107
455      141.677 1 2 100 -440.666 1.68192
456      141.677 1 2 100 -440.666 1.47277
457      141.677 1 2 100 -440.666 1.26362
458      141.677 1 2 100 -440.666 1.05448
459      141.677 1 2 100 -440.666 0.845327
460      141.677 1 2 100 -440.666 0.636179
461      141.677 1 2 100 -440.666 0.42703
462      141.677 1 2 100 -440.666 0.217882
463      141.677 1 2 100 -440.666 0.00873363
464      141.677 1 2 100 -440.666 6.08277
465      141.677 1 2 100 -440.666 5.87362
466      141.677 1 2 100 -440.666 5.66447
467      141.677 1 2 100 -440.666 5.45533
468      141.677 1 2 100 -440.666 5.24618
469      141.677 1 2 100 -434.279 0
470      141.677 1 2 100 -434.279 1.79722
471      141.677 1 2 100 -434.279 3.59443
472      141.677 1 2 100 -434.279 5.39165
473      141.677 1 2 100 -434.279 0.905683
474      141.677 1 2 100 -434.279 2.7029
475      141.677 1 2 100 -434.279 4.50012
476      141.677 1 2 100 -434.279 0.0141497
477      141.677 1 2 100 -434.279 1.81137
478      141.677 1 2 100 -434.279 3.60858
479      141.677 1 2 100 -434.279 5.4058
480      141.677 1 2 100 -434.279 0.919833
