# Pulseq sequence file
# Created by MATLAB mr toolbox

# Created for Pulseq-CEST
# https://pulseq-cest.github.io/
# Created by: Kai Herz
# Created at: 29-Jun-2023 13:09:56

[VERSION]
major 1
minor 3
revision 1

[DEFINITIONS]
B0 3 
B1pa 1.78 
B1rms 1.99620497 
DCsat 0.909090909 
FREQ 127.7292 
M0_offset -300 
Trec 3.5 
Trec_M0 3.5 
Tsat 1.975 
n_pulses 36 
num_meas 82 
offsets_ppm -300 -4 -3.9 -3.8 -3.7 -3.6 -3.5 -3.4 -3.3 -3.2 -3.1 -3 -2.9 -2.8 -2.7 -2.6 -2.5 -2.4 -2.3 -2.2 -2.1 -2 -1.9 -1.8 -1.7 -1.6 -1.5 -1.4 -1.3 -1.2 -1.1 -1 -0.9 -0.8 -0.7 -0.6 -0.5 -0.4 -0.3 -0.2 -0.1 0 0.1 0.2 0.3 0.4 0.5 0.6 0.7 0.8 0.9 1 1.1 1.2 1.3 1.4 1.5 1.6 1.7 1.8 1.9 2 2.1 2.2 2.3 2.4 2.5 2.6 2.7 2.8 2.9 3 3.1 3.2 3.3 3.4 3.5 3.6 3.7 3.8 3.9 4 
seq_id_string  
spoiling 1 
td 0.005 
tp 0.05 

# Format of blocks:
#  #  D RF  GX  GY  GZ ADC EXT
[BLOCKS]
   1  1  0   0   0   0  0  0
   2  0  1   0   0   0  0  0
   3  2  0   0   0   0  0  0
   4  0  2   0   0   0  0  0
   5  2  0   0   0   0  0  0
   6  0  3   0   0   0  0  0
   7  2  0   0   0   0  0  0
   8  0  4   0   0   0  0  0
   9  2  0   0   0   0  0  0
  10  0  5   0   0   0  0  0
  11  2  0   0   0   0  0  0
  12  0  6   0   0   0  0  0
  13  2  0   0   0   0  0  0
  14  0  7   0   0   0  0  0
  15  2  0   0   0   0  0  0
  16  0  8   0   0   0  0  0
  17  2  0   0   0   0  0  0
  18  0  9   0   0   0  0  0
  19  2  0   0   0   0  0  0
  20  0 10   0   0   0  0  0
  21  2  0   0   0   0  0  0
  22  0 11   0   0   0  0  0
  23  2  0   0   0   0  0  0
  24  0 12   0   0   0  0  0
  25  2  0   0   0   0  0  0
  26  0 13   0   0   0  0  0
  27  2  0   0   0   0  0  0
  28  0 14   0   0   0  0  0
  29  2  0   0   0   0  0  0
  30  0 15   0   0   0  0  0
  31  2  0   0   0   0  0  0
  32  0 16   0   0   0  0  0
  33  2  0   0   0   0  0  0
  34  0 17   0   0   0  0  0
  35  2  0   0   0   0  0  0
  36  0 18   0   0   0  0  0
  37  2  0   0   0   0  0  0
  38  0 19   0   0   0  0  0
  39  2  0   0   0   0  0  0
  40  0 20   0   0   0  0  0
  41  2  0   0   0   0  0  0
  42  0 21   0   0   0  0  0
  43  2  0   0   0   0  0  0
  44  0 22   0   0   0  0  0
  45  2  0   0   0   0  0  0
  46  0 23   0   0   0  0  0
  47  2  0   0   0   0  0  0
  48  0 24   0   0   0  0  0
  49  2  0   0   0   0  0  0
  50  0 25   0   0   0  0  0
  51  2  0   0   0   0  0  0
  52  0 26   0   0   0  0  0
  53  2  0   0   0   0  0  0
  54  0 27   0   0   0  0  0
  55  2  0   0   0   0  0  0
  56  0 28   0   0   0  0  0
  57  2  0   0   0   0  0  0
  58  0 29   0   0   0  0  0
  59  2  0   0   0   0  0  0
  60  0 30   0   0   0  0  0
  61  2  0   0   0   0  0  0
  62  0 31   0   0   0  0  0
  63  2  0   0   0   0  0  0
  64  0 32   0   0   0  0  0
  65  2  0   0   0   0  0  0
  66  0 33   0   0   0  0  0
  67  2  0   0   0   0  0  0
  68  0 34   0   0   0  0  0
  69  2  0   0   0   0  0  0
  70  0 35   0   0   0  0  0
  71  2  0   0   0   0  0  0
  72  0 36   0   0   0  0  0
  73  0  0   1   1   1  0  0
  74  0  0   0   0   0  1  0
  75  1  0   0   0   0  0  0
  76  0 37   0   0   0  0  0
  77  2  0   0   0   0  0  0
  78  0 38   0   0   0  0  0
  79  2  0   0   0   0  0  0
  80  0 39   0   0   0  0  0
  81  2  0   0   0   0  0  0
  82  0 40   0   0   0  0  0
  83  2  0   0   0   0  0  0
  84  0 41   0   0   0  0  0
  85  2  0   0   0   0  0  0
  86  0 42   0   0   0  0  0
  87  2  0   0   0   0  0  0
  88  0 43   0   0   0  0  0
  89  2  0   0   0   0  0  0
  90  0 44   0   0   0  0  0
  91  2  0   0   0   0  0  0
  92  0 45   0   0   0  0  0
  93  2  0   0   0   0  0  0
  94  0 46   0   0   0  0  0
  95  2  0   0   0   0  0  0
  96  0 47   0   0   0  0  0
  97  2  0   0   0   0  0  0
  98  0 48   0   0   0  0  0
  99  2  0   0   0   0  0  0
 100  0 49   0   0   0  0  0
 101  2  0   0   0   0  0  0
 102  0 50   0   0   0  0  0
 103  2  0   0   0   0  0  0
 104  0 51   0   0   0  0  0
 105  2  0   0   0   0  0  0
 106  0 52   0   0   0  0  0
 107  2  0   0   0   0  0  0
 108  0 53   0   0   0  0  0
 109  2  0   0   0   0  0  0
 110  0 54   0   0   0  0  0
 111  2  0   0   0   0  0  0
 112  0 55   0   0   0  0  0
 113  2  0   0   0   0  0  0
 114  0 56   0   0   0  0  0
 115  2  0   0   0   0  0  0
 116  0 57   0   0   0  0  0
 117  2  0   0   0   0  0  0
 118  0 58   0   0   0  0  0
 119  2  0   0   0   0  0  0
 120  0 59   0   0   0  0  0
 121  2  0   0   0   0  0  0
 122  0 60   0   0   0  0  0
 123  2  0   0   0   0  0  0
 124  0 61   0   0   0  0  0
 125  2  0   0   0   0  0  0
 126  0 62   0   0   0  0  0
 127  2  0   0   0   0  0  0
 128  0 63   0   0   0  0  0
 129  2  0   0   0   0  0  0
 130  0 64   0   0   0  0  0
 131  2  0   0   0   0  0  0
 132  0 65   0   0   0  0  0
 133  2  0   0   0   0  0  0
 134  0 66   0   0   0  0  0
 135  2  0   0   0   0  0  0
 136  0 67   0   0   0  0  0
 137  2  0   0   0   0  0  0
 138  0 68   0   0   0  0  0
 139  2  0   0   0   0  0  0
 140  0 69   0   0   0  0  0
 141  2  0   0   0   0  0  0
 142  0 70   0   0   0  0  0
 143  2  0   0   0   0  0  0
 144  0 71   0   0   0  0  0
 145  2  0   0   0   0  0  0
 146  0 72   0   0   0  0  0
 147  0  0   1   1   1  0  0
 148  0  0   0   0   0  1  0
 149  1  0   0   0   0  0  0
 150  0 73   0   0   0  0  0
 151  2  0   0   0   0  0  0
 152  0 74   0   0   0  0  0
 153  2  0   0   0   0  0  0
 154  0 75   0   0   0  0  0
 155  2  0   0   0   0  0  0
 156  0 76   0   0   0  0  0
 157  2  0   0   0   0  0  0
 158  0 77   0   0   0  0  0
 159  2  0   0   0   0  0  0
 160  0 78   0   0   0  0  0
 161  2  0   0   0   0  0  0
 162  0 79   0   0   0  0  0
 163  2  0   0   0   0  0  0
 164  0 80   0   0   0  0  0
 165  2  0   0   0   0  0  0
 166  0 81   0   0   0  0  0
 167  2  0   0   0   0  0  0
 168  0 82   0   0   0  0  0
 169  2  0   0   0   0  0  0
 170  0 83   0   0   0  0  0
 171  2  0   0   0   0  0  0
 172  0 84   0   0   0  0  0
 173  2  0   0   0   0  0  0
 174  0 85   0   0   0  0  0
 175  2  0   0   0   0  0  0
 176  0 86   0   0   0  0  0
 177  2  0   0   0   0  0  0
 178  0 87   0   0   0  0  0
 179  2  0   0   0   0  0  0
 180  0 88   0   0   0  0  0
 181  2  0   0   0   0  0  0
 182  0 89   0   0   0  0  0
 183  2  0   0   0   0  0  0
 184  0 90   0   0   0  0  0
 185  2  0   0   0   0  0  0
 186  0 91   0   0   0  0  0
 187  2  0   0   0   0  0  0
 188  0 92   0   0   0  0  0
 189  2  0   0   0   0  0  0
 190  0 93   0   0   0  0  0
 191  2  0   0   0   0  0  0
 192  0 94   0   0   0  0  0
 193  2  0   0   0   0  0  0
 194  0 95   0   0   0  0  0
 195  2  0   0   0   0  0  0
 196  0 96   0   0   0  0  0
 197  2  0   0   0   0  0  0
 198  0 97   0   0   0  0  0
 199  2  0   0   0   0  0  0
 200  0 98   0   0   0  0  0
 201  2  0   0   0   0  0  0
 202  0 99   0   0   0  0  0
 203  2  0   0   0   0  0  0
 204  0 100   0   0   0  0  0
 205  2  0   0   0   0  0  0
 206  0 101   0   0   0  0  0
 207  2  0   0   0   0  0  0
 208  0 102   0   0   0  0  0
 209  2  0   0   0   0  0  0
 210  0 103   0   0   0  0  0
 211  2  0   0   0   0  0  0
 212  0 104   0   0   0  0  0
 213  2  0   0   0   0  0  0
 214  0 105   0   0   0  0  0
 215  2  0   0   0   0  0  0
 216  0 106   0   0   0  0  0
 217  2  0   0   0   0  0  0
 218  0 107   0   0   0  0  0
 219  2  0   0   0   0  0  0
 220  0 108   0   0   0  0  0
 221  0  0   1   1   1  0  0
 222  0  0   0   0   0  1  0
 223  1  0   0   0   0  0  0
 224  0 109   0   0   0  0  0
 225  2  0   0   0   0  0  0
 226  0 110   0   0   0  0  0
 227  2  0   0   0   0  0  0
 228  0 111   0   0   0  0  0
 229  2  0   0   0   0  0  0
 230  0 112   0   0   0  0  0
 231  2  0   0   0   0  0  0
 232  0 113   0   0   0  0  0
 233  2  0   0   0   0  0  0
 234  0 114   0   0   0  0  0
 235  2  0   0   0   0  0  0
 236  0 115   0   0   0  0  0
 237  2  0   0   0   0  0  0
 238  0 116   0   0   0  0  0
 239  2  0   0   0   0  0  0
 240  0 117   0   0   0  0  0
 241  2  0   0   0   0  0  0
 242  0 118   0   0   0  0  0
 243  2  0   0   0   0  0  0
 244  0 119   0   0   0  0  0
 245  2  0   0   0   0  0  0
 246  0 120   0   0   0  0  0
 247  2  0   0   0   0  0  0
 248  0 121   0   0   0  0  0
 249  2  0   0   0   0  0  0
 250  0 122   0   0   0  0  0
 251  2  0   0   0   0  0  0
 252  0 123   0   0   0  0  0
 253  2  0   0   0   0  0  0
 254  0 124   0   0   0  0  0
 255  2  0   0   0   0  0  0
 256  0 125   0   0   0  0  0
 257  2  0   0   0   0  0  0
 258  0 126   0   0   0  0  0
 259  2  0   0   0   0  0  0
 260  0 127   0   0   0  0  0
 261  2  0   0   0   0  0  0
 262  0 128   0   0   0  0  0
 263  2  0   0   0   0  0  0
 264  0 129   0   0   0  0  0
 265  2  0   0   0   0  0  0
 266  0 130   0   0   0  0  0
 267  2  0   0   0   0  0  0
 268  0 131   0   0   0  0  0
 269  2  0   0   0   0  0  0
 270  0 132   0   0   0  0  0
 271  2  0   0   0   0  0  0
 272  0 133   0   0   0  0  0
 273  2  0   0   0   0  0  0
 274  0 134   0   0   0  0  0
 275  2  0   0   0   0  0  0
 276  0 135   0   0   0  0  0
 277  2  0   0   0   0  0  0
 278  0 136   0   0   0  0  0
 279  2  0   0   0   0  0  0
 280  0 137   0   0   0  0  0
 281  2  0   0   0   0  0  0
 282  0 138   0   0   0  0  0
 283  2  0   0   0   0  0  0
 284  0 139   0   0   0  0  0
 285  2  0   0   0   0  0  0
 286  0 140   0   0   0  0  0
 287  2  0   0   0   0  0  0
 288  0 141   0   0   0  0  0
 289  2  0   0   0   0  0  0
 290  0 142   0   0   0  0  0
 291  2  0   0   0   0  0  0
 292  0 143   0   0   0  0  0
 293  2  0   0   0   0  0  0
 294  0 144   0   0   0  0  0
 295  0  0   1   1   1  0  0
 296  0  0   0   0   0  1  0
 297  1  0   0   0   0  0  0
 298  0 145   0   0   0  0  0
 299  2  0   0   0   0  0  0
 300  0 146   0   0   0  0  0
 301  2  0   0   0   0  0  0
 302  0 147   0   0   0  0  0
 303  2  0   0   0   0  0  0
 304  0 148   0   0   0  0  0
 305  2  0   0   0   0  0  0
 306  0 149   0   0   0  0  0
 307  2  0   0   0   0  0  0
 308  0 150   0   0   0  0  0
 309  2  0   0   0   0  0  0
 310  0 151   0   0   0  0  0
 311  2  0   0   0   0  0  0
 312  0 152   0   0   0  0  0
 313  2  0   0   0   0  0  0
[RF]
1      141.677 1 2 100 -38318.8 0
2      141.677 1 2 100 -38318.8 0.389557
3      141.677 1 2 100 -38318.8 0.779115
4      141.677 1 2 100 -38318.8 1.16867
5      141.677 1 2 100 -38318.8 1.55823
6      141.677 1 2 100 -38318.8 1.94779
7      141.677 1 2 100 -38318.8 2.33734
8      141.677 1 2 100 -38318.8 2.7269
9      141.677 1 2 100 -38318.8 3.11646
10      141.677 1 2 100 -38318.8 3.50602
11      141.677 1 2 100 -38318.8 3.89557
12      141.677 1 2 100 -38318.8 4.28513
13      141.677 1 2 100 -38318.8 4.67469
14      141.677 1 2 100 -38318.8 5.06425
15      141.677 1 2 100 -38318.8 5.4538
16      141.677 1 2 100 -38318.8 5.84336
17      141.677 1 2 100 -38318.8 6.23292
18      141.677 1 2 100 -38318.8 0.339292
19      141.677 1 2 100 -38318.8 0.728849
20      141.677 1 2 100 -38318.8 1.11841
21      141.677 1 2 100 -38318.8 1.50796
22      141.677 1 2 100 -38318.8 1.89752
23      141.677 1 2 100 -38318.8 2.28708
24      141.677 1 2 100 -38318.8 2.67664
25      141.677 1 2 100 -38318.8 3.06619
26      141.677 1 2 100 -38318.8 3.45575
27      141.677 1 2 100 -38318.8 3.84531
28      141.677 1 2 100 -38318.8 4.23487
29      141.677 1 2 100 -38318.8 4.62442
30      141.677 1 2 100 -38318.8 5.01398
31      141.677 1 2 100 -38318.8 5.40354
32      141.677 1 2 100 -38318.8 5.7931
33      141.677 1 2 100 -38318.8 6.18265
34      141.677 1 2 100 -38318.8 0.289027
35      141.677 1 2 100 -38318.8 0.678584
36      141.677 1 2 100 -38318.8 1.06814
37      141.677 1 2 100 -510.917 0
38      141.677 1 2 100 -510.917 2.85357
39      141.677 1 2 100 -510.917 5.70714
40      141.677 1 2 100 -510.917 2.27753
41      141.677 1 2 100 -510.917 5.1311
42      141.677 1 2 100 -510.917 1.70149
43      141.677 1 2 100 -510.917 4.55506
44      141.677 1 2 100 -510.917 1.12544
45      141.677 1 2 100 -510.917 3.97902
46      141.677 1 2 100 -510.917 0.549402
47      141.677 1 2 100 -510.917 3.40297
48      141.677 1 2 100 -510.917 6.25654
49      141.677 1 2 100 -510.917 2.82693
50      141.677 1 2 100 -510.917 5.6805
51      141.677 1 2 100 -510.917 2.25089
52      141.677 1 2 100 -510.917 5.10446
53      141.677 1 2 100 -510.917 1.67485
54      141.677 1 2 100 -510.917 4.52842
55      141.677 1 2 100 -510.917 1.0988
56      141.677 1 2 100 -510.917 3.95237
57      141.677 1 2 100 -510.917 0.522761
58      141.677 1 2 100 -510.917 3.37633
59      141.677 1 2 100 -510.917 6.2299
60      141.677 1 2 100 -510.917 2.80029
61      141.677 1 2 100 -510.917 5.65386
62      141.677 1 2 100 -510.917 2.22425
63      141.677 1 2 100 -510.917 5.07782
64      141.677 1 2 100 -510.917 1.64821
65      141.677 1 2 100 -510.917 4.50178
66      141.677 1 2 100 -510.917 1.07216
67      141.677 1 2 100 -510.917 3.92573
68      141.677 1 2 100 -510.917 0.49612
69      141.677 1 2 100 -510.917 3.34969
70      141.677 1 2 100 -510.917 6.20326
71      141.677 1 2 100 -510.917 2.77365
72      141.677 1 2 100 -510.917 5.62722
73      141.677 1 2 100 -498.144 0
74      141.677 1 2 100 -498.144 0.583117
75      141.677 1 2 100 -498.144 1.16623
76      141.677 1 2 100 -498.144 1.74935
77      141.677 1 2 100 -498.144 2.33247
78      141.677 1 2 100 -498.144 2.91559
79      141.677 1 2 100 -498.144 3.4987
80      141.677 1 2 100 -498.144 4.08182
81      141.677 1 2 100 -498.144 4.66494
82      141.677 1 2 100 -498.144 5.24806
83      141.677 1 2 100 -498.144 5.83117
84      141.677 1 2 100 -498.144 0.131105
85      141.677 1 2 100 -498.144 0.714222
86      141.677 1 2 100 -498.144 1.29734
87      141.677 1 2 100 -498.144 1.88046
88      141.677 1 2 100 -498.144 2.46357
89      141.677 1 2 100 -498.144 3.04669
90      141.677 1 2 100 -498.144 3.62981
91      141.677 1 2 100 -498.144 4.21293
92      141.677 1 2 100 -498.144 4.79604
93      141.677 1 2 100 -498.144 5.37916
94      141.677 1 2 100 -498.144 5.96228
95      141.677 1 2 100 -498.144 0.26221
96      141.677 1 2 100 -498.144 0.845327
97      141.677 1 2 100 -498.144 1.42844
98      141.677 1 2 100 -498.144 2.01156
99      141.677 1 2 100 -498.144 2.59468
100      141.677 1 2 100 -498.144 3.1778
101      141.677 1 2 100 -498.144 3.76091
102      141.677 1 2 100 -498.144 4.34403
103      141.677 1 2 100 -498.144 4.92715
104      141.677 1 2 100 -498.144 5.51027
105      141.677 1 2 100 -498.144 6.09338
106      141.677 1 2 100 -498.144 0.393315
107      141.677 1 2 100 -498.144 0.976432
108      141.677 1 2 100 -498.144 1.55955
109      141.677 1 2 100 -485.371 0
110      141.677 1 2 100 -485.371 4.59585
111      141.677 1 2 100 -485.371 2.90851
112      141.677 1 2 100 -485.371 1.22117
113      141.677 1 2 100 -485.371 5.81702
114      141.677 1 2 100 -485.371 4.12969
115      141.677 1 2 100 -485.371 2.44235
116      141.677 1 2 100 -485.371 0.755013
117      141.677 1 2 100 -485.371 5.35086
118      141.677 1 2 100 -485.371 3.66352
119      141.677 1 2 100 -485.371 1.97619
120      141.677 1 2 100 -485.371 0.288851
121      141.677 1 2 100 -485.371 4.8847
122      141.677 1 2 100 -485.371 3.19736
123      141.677 1 2 100 -485.371 1.51003
124      141.677 1 2 100 -485.371 6.10587
125      141.677 1 2 100 -485.371 4.41854
126      141.677 1 2 100 -485.371 2.7312
127      141.677 1 2 100 -485.371 1.04386
128      141.677 1 2 100 -485.371 5.63971
129      141.677 1 2 100 -485.371 3.95237
130      141.677 1 2 100 -485.371 2.26504
131      141.677 1 2 100 -485.371 0.577701
132      141.677 1 2 100 -485.371 5.17355
133      141.677 1 2 100 -485.371 3.48621
134      141.677 1 2 100 -485.371 1.79888
135      141.677 1 2 100 -485.371 0.111539
136      141.677 1 2 100 -485.371 4.70739
137      141.677 1 2 100 -485.371 3.02005
138      141.677 1 2 100 -485.371 1.33271
139      141.677 1 2 100 -485.371 5.92856
140      141.677 1 2 100 -485.371 4.24123
141      141.677 1 2 100 -485.371 2.55389
142      141.677 1 2 100 -485.371 0.866552
143      141.677 1 2 100 -485.371 5.4624
144      141.677 1 2 100 -485.371 3.77506
145      141.677 1 2 100 -472.598 0
146      141.677 1 2 100 -472.598 2.32539
147      141.677 1 2 100 -472.598 4.65079
148      141.677 1 2 100 -472.598 0.692998
149      141.677 1 2 100 -472.598 3.01839
150      141.677 1 2 100 -472.598 5.34379
151      141.677 1 2 100 -472.598 1.386
152      141.677 1 2 100 -472.598 3.71139
153      141.677 1 2 100 -472.598 6.03678
154      141.677 1 2 100 -472.598 2.07899
155      141.677 1 2 100 -472.598 4.40439
156      141.677 1 2 100 -472.598 0.446596
157      141.677 1 2 100 -472.598 2.77199
158      141.677 1 2 100 -472.598 5.09738
159      141.677 1 2 100 -472.598 1.13959
160      141.677 1 2 100 -472.598 3.46499
161      141.677 1 2 100 -472.598 5.79038
162      141.677 1 2 100 -472.598 1.83259
163      141.677 1 2 100 -472.598 4.15799
164      141.677 1 2 100 -472.598 0.200195
165      141.677 1 2 100 -472.598 2.52559
166      141.677 1 2 100 -472.598 4.85098
167      141.677 1 2 100 -472.598 0.893192
168      141.677 1 2 100 -472.598 3.21859
169      141.677 1 2 100 -472.598 5.54398
170      141.677 1 2 100 -472.598 1.58619
171      141.677 1 2 100 -472.598 3.91158
172      141.677 1 2 100 -472.598 6.23698
173      141.677 1 2 100 -472.598 2.27919
174      141.677 1 2 100 -472.598 4.60458
175      141.677 1 2 100 -472.598 0.646791
176      141.677 1 2 100 -472.598 2.97219
177      141.677 1 2 100 -472.598 5.29758
178      141.677 1 2 100 -472.598 1.33979
179      141.677 1 2 100 -472.598 3.66518
180      141.677 1 2 100 -472.598 5.99058
181      141.677 1 2 100 -459.825 0
182      141.677 1 2 100 -459.825 0.0549402
183      141.677 1 2 100 -459.825 0.10988
184      141.677 1 2 100 -459.825 0.164821
185      141.677 1 2 100 -459.825 0.219761
186      141.677 1 2 100 -459.825 0.274701
187      141.677 1 2 100 -459.825 0.329641
188      141.677 1 2 100 -459.825 0.384581
189      141.677 1 2 100 -459.825 0.439521
190      141.677 1 2 100 -459.825 0.494462
191      141.677 1 2 100 -459.825 0.549402
192      141.677 1 2 100 -459.825 0.604342
193      141.677 1 2 100 -459.825 0.659282
194      141.677 1 2 100 -459.825 0.714222
195      141.677 1 2 100 -459.825 0.769162
196      141.677 1 2 100 -459.825 0.824103
197      141.677 1 2 100 -459.825 0.879043
198      141.677 1 2 100 -459.825 0.933983
199      141.677 1 2 100 -459.825 0.988923
200      141.677 1 2 100 -459.825 1.04386
201      141.677 1 2 100 -459.825 1.0988
202      141.677 1 2 100 -459.825 1.15374
203      141.677 1 2 100 -459.825 1.20868
204      141.677 1 2 100 -459.825 1.26362
205      141.677 1 2 100 -459.825 1.31856
206      141.677 1 2 100 -459.825 1.3735
207      141.677 1 2 100 -459.825 1.42844
208      141.677 1 2 100 -459.825 1.48338
209      141.677 1 2 100 -459.825 1.53832
210      141.677 1 2 100 -459.825 1.59326
211      141.677 1 2 100 -459.825 1.64821
212      141.677 1 2 100 -459.825 1.70315
213      141.677 1 2 100 -459.825 1.75809
214      141.677 1 2 100 -459.825 1.81303
215      141.677 1 2 100 -459.825 1.86797
216      141.677 1 2 100 -459.825 1.92291
217      141.677 1 2 100 -447.052 0
218      141.677 1 2 100 -447.052 4.06767
219      141.677 1 2 100 -447.052 1.85216
220      141.677 1 2 100 -447.052 5.91983
221      141.677 1 2 100 -447.052 3.70431
222      141.677 1 2 100 -447.052 1.4888
223      141.677 1 2 100 -447.052 5.55647
224      141.677 1 2 100 -447.052 3.34096
225      141.677 1 2 100 -447.052 1.12544
226      141.677 1 2 100 -447.052 5.19312
227      141.677 1 2 100 -447.052 2.9776
228      141.677 1 2 100 -447.052 0.762088
229      141.677 1 2 100 -447.052 4.82976
230      141.677 1 2 100 -447.052 2.61424
231      141.677 1 2 100 -447.052 0.398731
232      141.677 1 2 100 -447.052 4.4664
233      141.677 1 2 100 -447.052 2.25089
234      141.677 1 2 100 -447.052 0.0353743
235      141.677 1 2 100 -447.052 4.10305
236      141.677 1 2 100 -447.052 1.88753
237      141.677 1 2 100 -447.052 5.9552
238      141.677 1 2 100 -447.052 3.73969
239      141.677 1 2 100 -447.052 1.52418
240      141.677 1 2 100 -447.052 5.59185
241      141.677 1 2 100 -447.052 3.37633
242      141.677 1 2 100 -447.052 1.16082
243      141.677 1 2 100 -447.052 5.22849
244      141.677 1 2 100 -447.052 3.01298
245      141.677 1 2 100 -447.052 0.797462
246      141.677 1 2 100 -447.052 4.86513
247      141.677 1 2 100 -447.052 2.64962
248      141.677 1 2 100 -447.052 0.434105
249      141.677 1 2 100 -447.052 4.50178
250      141.677 1 2 100 -447.052 2.28626
251      141.677 1 2 100 -447.052 0.0707487
252      141.677 1 2 100 -447.052 4.13842
253      141.677 1 2 100 -434.279 0
254      141.677 1 2 100 -434.279 1.79722
255      141.677 1 2 100 -434.279 3.59443
256      141.677 1 2 100 -434.279 5.39165
257      141.677 1 2 100 -434.279 0.905683
258      141.677 1 2 100 -434.279 2.7029
259      141.677 1 2 100 -434.279 4.50012
260      141.677 1 2 100 -434.279 0.0141497
261      141.677 1 2 100 -434.279 1.81137
262      141.677 1 2 100 -434.279 3.60858
263      141.677 1 2 100 -434.279 5.4058
264      141.677 1 2 100 -434.279 0.919833
265      141.677 1 2 100 -434.279 2.71705
266      141.677 1 2 100 -434.279 4.51427
267      141.677 1 2 100 -434.279 0.0282995
268      141.677 1 2 100 -434.279 1.82552
269      141.677 1 2 100 -434.279 3.62273
270      141.677 1 2 100 -434.279 5.41995
271      141.677 1 2 100 -434.279 0.933983
272      141.677 1 2 100 -434.279 2.7312
273      141.677 1 2 100 -434.279 4.52842
274      141.677 1 2 100 -434.279 0.0424492
275      141.677 1 2 100 -434.279 1.83967
276      141.677 1 2 100 -434.279 3.63688
277      141.677 1 2 100 -434.279 5.4341
278      141.677 1 2 100 -434.279 0.948133
279      141.677 1 2 100 -434.279 2.74535
280      141.677 1 2 100 -434.279 4.54257
281      141.677 1 2 100 -434.279 0.0565989
282      141.677 1 2 100 -434.279 1.85382
283      141.677 1 2 100 -434.279 3.65103
284      141.677 1 2 100 -434.279 5.44825
285      141.677 1 2 100 -434.279 0.962282
286      141.677 1 2 100 -434.279 2.7595
287      141.677 1 2 100 -434.279 4.55672
288      141.677 1 2 100 -434.279 0.0707487
289      141.677 1 2 100 -421.506 0
290      141.677 1 2 100 -421.506 5.80995
291      141.677 1 2 100 -421.506 5.33671
292      141.677 1 2 100 -421.506 4.86347
293      141.677 1 2 100 -421.506 4.39024
294      141.677 1 2 100 -421.506 3.917
295      141.677 1 2 100 -421.506 3.44376
296      141.677 1 2 100 -421.506 2.97053
297      141.677 1 2 100 -421.506 2.49729
298      141.677 1 2 100 -421.506 2.02405
299      141.677 1 2 100 -421.506 1.55082
300      141.677 1 2 100 -421.506 1.07758
301      141.677 1 2 100 -421.506 0.604342
302      141.677 1 2 100 -421.506 0.131105
303      141.677 1 2 100 -421.506 5.94105
304      141.677 1 2 100 -421.506 5.46782
305      141.677 1 2 100 -421.506 4.99458
306      141.677 1 2 100 -421.506 4.52134
307      141.677 1 2 100 -421.506 4.04811
308      141.677 1 2 100 -421.506 3.57487
309      141.677 1 2 100 -421.506 3.10163
310      141.677 1 2 100 -421.506 2.62839
311      141.677 1 2 100 -421.506 2.15516
312      141.677 1 2 100 -421.506 1.68192
313      141.677 1 2 100 -421.506 1.20868
314      141.677 1 2 100 -421.506 0.735447
315      141.677 1 2 100 -421.506 0.26221
316      141.677 1 2 100 -421.506 6.07216
317      141.677 1 2 100 -421.506 5.59892
318      141.677 1 2 100 -421.506 5.12568
319      141.677 1 2 100 -421.506 4.65245
320      141.677 1 2 100 -421.506 4.17921
321      141.677 1 2 100 -421.506 3.70597
322      141.677 1 2 100 -421.506 3.23274
323      141.677 1 2 100 -421.506 2.7595
324      141.677 1 2 100 -421.506 2.28626
325      141.677 1 2 100 -408.733 0
326      141.677 1 2 100 -408.733 3.53949
327      141.677 1 2 100 -408.733 0.795803
328      141.677 1 2 100 -408.733 4.3353
329      141.677 1 2 100 -408.733 1.59161
330      141.677 1 2 100 -408.733 5.1311
331      141.677 1 2 100 -408.733 2.38741
332      141.677 1 2 100 -408.733 5.9269
333      141.677 1 2 100 -408.733 3.18321
334      141.677 1 2 100 -408.733 0.439521
335      141.677 1 2 100 -408.733 3.97902
336      141.677 1 2 100 -408.733 1.23532
337      141.677 1 2 100 -408.733 4.77482
338      141.677 1 2 100 -408.733 2.03113
339      141.677 1 2 100 -408.733 5.57062
340      141.677 1 2 100 -408.733 2.82693
341      141.677 1 2 100 -408.733 0.0832396
342      141.677 1 2 100 -408.733 3.62273
343      141.677 1 2 100 -408.733 0.879043
344      141.677 1 2 100 -408.733 4.41854
345      141.677 1 2 100 -408.733 1.67485
346      141.677 1 2 100 -408.733 5.21434
347      141.677 1 2 100 -408.733 2.47065
348      141.677 1 2 100 -408.733 6.01014
349      141.677 1 2 100 -408.733 3.26645
350      141.677 1 2 100 -408.733 0.522761
351      141.677 1 2 100 -408.733 4.06226
352      141.677 1 2 100 -408.733 1.31856
353      141.677 1 2 100 -408.733 4.85806
354      141.677 1 2 100 -408.733 2.11437
355      141.677 1 2 100 -408.733 5.65386
356      141.677 1 2 100 -408.733 2.91017
357      141.677 1 2 100 -408.733 0.166479
358      141.677 1 2 100 -408.733 3.70597
359      141.677 1 2 100 -408.733 0.962282
360      141.677 1 2 100 -408.733 4.50178
361      141.677 1 2 100 -395.961 0
362      141.677 1 2 100 -395.961 1.26904
363      141.677 1 2 100 -395.961 2.53808
364      141.677 1 2 100 -395.961 3.80712
365      141.677 1 2 100 -395.961 5.07616
366      141.677 1 2 100 -395.961 0.062015
367      141.677 1 2 100 -395.961 1.33106
368      141.677 1 2 100 -395.961 2.6001
369      141.677 1 2 100 -395.961 3.86914
370      141.677 1 2 100 -395.961 5.13818
371      141.677 1 2 100 -395.961 0.12403
372      141.677 1 2 100 -395.961 1.39307
373      141.677 1 2 100 -395.961 2.66211
374      141.677 1 2 100 -395.961 3.93115
375      141.677 1 2 100 -395.961 5.20019
376      141.677 1 2 100 -395.961 0.186045
377      141.677 1 2 100 -395.961 1.45509
378      141.677 1 2 100 -395.961 2.72413
379      141.677 1 2 100 -395.961 3.99317
380      141.677 1 2 100 -395.961 5.26221
381      141.677 1 2 100 -395.961 0.24806
382      141.677 1 2 100 -395.961 1.5171
383      141.677 1 2 100 -395.961 2.78614
384      141.677 1 2 100 -395.961 4.05518
385      141.677 1 2 100 -395.961 5.32422
386      141.677 1 2 100 -395.961 0.310075
387      141.677 1 2 100 -395.961 1.57912
388      141.677 1 2 100 -395.961 2.84816
389      141.677 1 2 100 -395.961 4.1172
390      141.677 1 2 100 -395.961 5.38624
391      141.677 1 2 100 -395.961 0.37209
392      141.677 1 2 100 -395.961 1.64113
393      141.677 1 2 100 -395.961 2.91017
394      141.677 1 2 100 -395.961 4.17921
395      141.677 1 2 100 -395.961 5.44825
396      141.677 1 2 100 -395.961 0.434105
397      141.677 1 2 100 -383.188 0
398      141.677 1 2 100 -383.188 5.28177
399      141.677 1 2 100 -383.188 4.28036
400      141.677 1 2 100 -383.188 3.27894
401      141.677 1 2 100 -383.188 2.27753
402      141.677 1 2 100 -383.188 1.27611
403      141.677 1 2 100 -383.188 0.274701
404      141.677 1 2 100 -383.188 5.55647
405      141.677 1 2 100 -383.188 4.55506
406      141.677 1 2 100 -383.188 3.55364
407      141.677 1 2 100 -383.188 2.55223
408      141.677 1 2 100 -383.188 1.55082
409      141.677 1 2 100 -383.188 0.549402
410      141.677 1 2 100 -383.188 5.83117
411      141.677 1 2 100 -383.188 4.82976
412      141.677 1 2 100 -383.188 3.82834
413      141.677 1 2 100 -383.188 2.82693
414      141.677 1 2 100 -383.188 1.82552
415      141.677 1 2 100 -383.188 0.824103
416      141.677 1 2 100 -383.188 6.10587
417      141.677 1 2 100 -383.188 5.10446
418      141.677 1 2 100 -383.188 4.10305
419      141.677 1 2 100 -383.188 3.10163
420      141.677 1 2 100 -383.188 2.10022
421      141.677 1 2 100 -383.188 1.0988
422      141.677 1 2 100 -383.188 0.0973894
423      141.677 1 2 100 -383.188 5.37916
424      141.677 1 2 100 -383.188 4.37775
425      141.677 1 2 100 -383.188 3.37633
426      141.677 1 2 100 -383.188 2.37492
427      141.677 1 2 100 -383.188 1.3735
428      141.677 1 2 100 -383.188 0.37209
429      141.677 1 2 100 -383.188 5.65386
430      141.677 1 2 100 -383.188 4.65245
431      141.677 1 2 100 -383.188 3.65103
432      141.677 1 2 100 -383.188 2.64962
433      141.677 1 2 100 -370.415 0
434      141.677 1 2 100 -370.415 3.01132
435      141.677 1 2 100 -370.415 6.02263
436      141.677 1 2 100 -370.415 2.75077
437      141.677 1 2 100 -370.415 5.76208
438      141.677 1 2 100 -370.415 2.49021
439      141.677 1 2 100 -370.415 5.50153
440      141.677 1 2 100 -370.415 2.22966
441      141.677 1 2 100 -370.415 5.24098
442      141.677 1 2 100 -370.415 1.96911
443      141.677 1 2 100 -370.415 4.98043
444      141.677 1 2 100 -370.415 1.70856
445      141.677 1 2 100 -370.415 4.71988
446      141.677 1 2 100 -370.415 1.44801
447      141.677 1 2 100 -370.415 4.45933
448      141.677 1 2 100 -370.415 1.18746
449      141.677 1 2 100 -370.415 4.19878
450      141.677 1 2 100 -370.415 0.926908
451      141.677 1 2 100 -370.415 3.93823
452      141.677 1 2 100 -370.415 0.666357
453      141.677 1 2 100 -370.415 3.67767
454      141.677 1 2 100 -370.415 0.405806
455      141.677 1 2 100 -370.415 3.41712
456      141.677 1 2 100 -370.415 0.145255
457      141.677 1 2 100 -370.415 3.15657
458      141.677 1 2 100 -370.415 6.16789
459      141.677 1 2 100 -370.415 2.89602
460      141.677 1 2 100 -370.415 5.90734
461      141.677 1 2 100 -370.415 2.63547
462      141.677 1 2 100 -370.415 5.64679
463      141.677 1 2 100 -370.415 2.37492
464      141.677 1 2 100 -370.415 5.38624
465      141.677 1 2 100 -370.415 2.11437
466      141.677 1 2 100 -370.415 5.12568
467      141.677 1 2 100 -370.415 1.85382
468      141.677 1 2 100 -370.415 4.86513
469      141.677 1 2 100 -357.642 0
470      141.677 1 2 100 -357.642 0.740863
471      141.677 1 2 100 -357.642 1.48173
472      141.677 1 2 100 -357.642 2.22259
473      141.677 1 2 100 -357.642 2.96345
474      141.677 1 2 100 -357.642 3.70431
475      141.677 1 2 100 -357.642 4.44518
476      141.677 1 2 100 -357.642 5.18604
477      141.677 1 2 100 -357.642 5.9269
478      141.677 1 2 100 -357.642 0.384581
479      141.677 1 2 100 -357.642 1.12544
