# Pulseq sequence file
# Created by MATLAB mr toolbox

# Created for Pulseq-CEST
# https://pulseq-cest.github.io/
# Created by: Kai Herz
# Created at: 30-Mar-2023 13:45:27

[VERSION]
major 1
minor 3
revision 1

[DEFINITIONS]
B0 2.89500052 
B1pa 1.78 
B1rms 1.99620497 
DCsat 0.909090909 
FREQ 123.2587 
M0_offset -300 
Trec 3.5 
Trec_M0 3.5 
Tsat 1.975 
n_pulses 36 
num_meas 162 
offsets_ppm -300 -4 -3.95 -3.9 -3.85 -3.8 -3.75 -3.7 -3.65 -3.6 -3.55 -3.5 -3.45 -3.4 -3.35 -3.3 -3.25 -3.2 -3.15 -3.1 -3.05 -3 -2.95 -2.9 -2.85 -2.8 -2.75 -2.7 -2.65 -2.6 -2.55 -2.5 -2.45 -2.4 -2.35 -2.3 -2.25 -2.2 -2.15 -2.1 -2.05 -2 -1.95 -1.9 -1.85 -1.8 -1.75 -1.7 -1.65 -1.6 -1.55 -1.5 -1.45 -1.4 -1.35 -1.3 -1.25 -1.2 -1.15 -1.1 -1.05 -1 -0.95 -0.9 -0.85 -0.8 -0.75 -0.7 -0.65 -0.6 -0.55 -0.5 -0.45 -0.4 -0.35 -0.3 -0.25 -0.2 -0.15 -0.1 -0.05 0 0.05 0.1 0.15 0.2 0.25 0.3 0.35 0.4 0.45 0.5 0.55 0.6 0.65 0.7 0.75 0.8 0.85 0.9 0.95 1 1.05 1.1 1.15 1.2 1.25 1.3 1.35 1.4 1.45 1.5 1.55 1.6 1.65 1.7 1.75 1.8 1.85 1.9 1.95 2 2.05 2.1 2.15 2.2 2.25 2.3 2.35 2.4 2.45 2.5 2.55 2.6 2.65 2.7 2.75 2.8 2.85 2.9 2.95 3 3.05 3.1 3.15 3.2 3.25 3.3 3.35 3.4 3.45 3.5 3.55 3.6 3.65 3.7 3.75 3.8 3.85 3.9 3.95 4 
seq_id_string  
spoiling 1 
td 0.005 
tp 0.05 

# Format of blocks:
#  #  D RF  GX  GY  GZ ADC EXT
[BLOCKS]
    1  1  0   0   0   0  0  0
    2  0  1   0   0   0  0  0
    3  2  0   0   0   0  0  0
    4  0  1   0   0   0  0  0
    5  2  0   0   0   0  0  0
    6  0  1   0   0   0  0  0
    7  2  0   0   0   0  0  0
    8  0  1   0   0   0  0  0
    9  2  0   0   0   0  0  0
   10  0  1   0   0   0  0  0
   11  2  0   0   0   0  0  0
   12  0  1   0   0   0  0  0
   13  2  0   0   0   0  0  0
   14  0  1   0   0   0  0  0
   15  2  0   0   0   0  0  0
   16  0  1   0   0   0  0  0
   17  2  0   0   0   0  0  0
   18  0  1   0   0   0  0  0
   19  2  0   0   0   0  0  0
   20  0  1   0   0   0  0  0
   21  2  0   0   0   0  0  0
   22  0  1   0   0   0  0  0
   23  2  0   0   0   0  0  0
   24  0  1   0   0   0  0  0
   25  2  0   0   0   0  0  0
   26  0  1   0   0   0  0  0
   27  2  0   0   0   0  0  0
   28  0  1   0   0   0  0  0
   29  2  0   0   0   0  0  0
   30  0  1   0   0   0  0  0
   31  2  0   0   0   0  0  0
   32  0  1   0   0   0  0  0
   33  2  0   0   0   0  0  0
   34  0  1   0   0   0  0  0
   35  2  0   0   0   0  0  0
   36  0  1   0   0   0  0  0
   37  2  0   0   0   0  0  0
   38  0  1   0   0   0  0  0
   39  2  0   0   0   0  0  0
   40  0  1   0   0   0  0  0
   41  2  0   0   0   0  0  0
   42  0  1   0   0   0  0  0
   43  2  0   0   0   0  0  0
   44  0  1   0   0   0  0  0
   45  2  0   0   0   0  0  0
   46  0  1   0   0   0  0  0
   47  2  0   0   0   0  0  0
   48  0  1   0   0   0  0  0
   49  2  0   0   0   0  0  0
   50  0  1   0   0   0  0  0
   51  2  0   0   0   0  0  0
   52  0  1   0   0   0  0  0
   53  2  0   0   0   0  0  0
   54  0  1   0   0   0  0  0
   55  2  0   0   0   0  0  0
   56  0  1   0   0   0  0  0
   57  2  0   0   0   0  0  0
   58  0  1   0   0   0  0  0
   59  2  0   0   0   0  0  0
   60  0  1   0   0   0  0  0
   61  2  0   0   0   0  0  0
   62  0  1   0   0   0  0  0
   63  2  0   0   0   0  0  0
   64  0  1   0   0   0  0  0
   65  2  0   0   0   0  0  0
   66  0  1   0   0   0  0  0
   67  2  0   0   0   0  0  0
   68  0  1   0   0   0  0  0
   69  2  0   0   0   0  0  0
   70  0  1   0   0   0  0  0
   71  2  0   0   0   0  0  0
   72  0  1   0   0   0  0  0
   73  0  0   1   1   1  0  0
   74  0  0   0   0   0  1  0
   75  1  0   0   0   0  0  0
   76  0  2   0   0   0  0  0
   77  2  0   0   0   0  0  0
   78  0  2   0   0   0  0  0
   79  2  0   0   0   0  0  0
   80  0  2   0   0   0  0  0
   81  2  0   0   0   0  0  0
   82  0  2   0   0   0  0  0
   83  2  0   0   0   0  0  0
   84  0  2   0   0   0  0  0
   85  2  0   0   0   0  0  0
   86  0  2   0   0   0  0  0
   87  2  0   0   0   0  0  0
   88  0  2   0   0   0  0  0
   89  2  0   0   0   0  0  0
   90  0  2   0   0   0  0  0
   91  2  0   0   0   0  0  0
   92  0  2   0   0   0  0  0
   93  2  0   0   0   0  0  0
   94  0  2   0   0   0  0  0
   95  2  0   0   0   0  0  0
   96  0  2   0   0   0  0  0
   97  2  0   0   0   0  0  0
   98  0  2   0   0   0  0  0
   99  2  0   0   0   0  0  0
  100  0  2   0   0   0  0  0
  101  2  0   0   0   0  0  0
  102  0  2   0   0   0  0  0
  103  2  0   0   0   0  0  0
  104  0  2   0   0   0  0  0
  105  2  0   0   0   0  0  0
  106  0  2   0   0   0  0  0
  107  2  0   0   0   0  0  0
  108  0  2   0   0   0  0  0
  109  2  0   0   0   0  0  0
  110  0  2   0   0   0  0  0
  111  2  0   0   0   0  0  0
  112  0  2   0   0   0  0  0
  113  2  0   0   0   0  0  0
  114  0  2   0   0   0  0  0
  115  2  0   0   0   0  0  0
  116  0  2   0   0   0  0  0
  117  2  0   0   0   0  0  0
  118  0  2   0   0   0  0  0
  119  2  0   0   0   0  0  0
  120  0  2   0   0   0  0  0
  121  2  0   0   0   0  0  0
  122  0  2   0   0   0  0  0
  123  2  0   0   0   0  0  0
  124  0  2   0   0   0  0  0
  125  2  0   0   0   0  0  0
  126  0  2   0   0   0  0  0
  127  2  0   0   0   0  0  0
  128  0  2   0   0   0  0  0
  129  2  0   0   0   0  0  0
  130  0  2   0   0   0  0  0
  131  2  0   0   0   0  0  0
  132  0  2   0   0   0  0  0
  133  2  0   0   0   0  0  0
  134  0  2   0   0   0  0  0
  135  2  0   0   0   0  0  0
  136  0  2   0   0   0  0  0
  137  2  0   0   0   0  0  0
  138  0  2   0   0   0  0  0
  139  2  0   0   0   0  0  0
  140  0  2   0   0   0  0  0
  141  2  0   0   0   0  0  0
  142  0  2   0   0   0  0  0
  143  2  0   0   0   0  0  0
  144  0  2   0   0   0  0  0
  145  2  0   0   0   0  0  0
  146  0  2   0   0   0  0  0
  147  0  0   1   1   1  0  0
  148  0  0   0   0   0  1  0
  149  1  0   0   0   0  0  0
  150  0  3   0   0   0  0  0
  151  2  0   0   0   0  0  0
  152  0  3   0   0   0  0  0
  153  2  0   0   0   0  0  0
  154  0  3   0   0   0  0  0
  155  2  0   0   0   0  0  0
  156  0  3   0   0   0  0  0
  157  2  0   0   0   0  0  0
  158  0  3   0   0   0  0  0
  159  2  0   0   0   0  0  0
  160  0  3   0   0   0  0  0
  161  2  0   0   0   0  0  0
  162  0  3   0   0   0  0  0
  163  2  0   0   0   0  0  0
  164  0  3   0   0   0  0  0
  165  2  0   0   0   0  0  0
  166  0  3   0   0   0  0  0
  167  2  0   0   0   0  0  0
  168  0  3   0   0   0  0  0
  169  2  0   0   0   0  0  0
  170  0  3   0   0   0  0  0
  171  2  0   0   0   0  0  0
  172  0  3   0   0   0  0  0
  173  2  0   0   0   0  0  0
  174  0  3   0   0   0  0  0
  175  2  0   0   0   0  0  0
  176  0  3   0   0   0  0  0
  177  2  0   0   0   0  0  0
  178  0  3   0   0   0  0  0
  179  2  0   0   0   0  0  0
  180  0  3   0   0   0  0  0
  181  2  0   0   0   0  0  0
  182  0  3   0   0   0  0  0
  183  2  0   0   0   0  0  0
  184  0  3   0   0   0  0  0
  185  2  0   0   0   0  0  0
  186  0  3   0   0   0  0  0
  187  2  0   0   0   0  0  0
  188  0  3   0   0   0  0  0
  189  2  0   0   0   0  0  0
  190  0  3   0   0   0  0  0
  191  2  0   0   0   0  0  0
  192  0  3   0   0   0  0  0
  193  2  0   0   0   0  0  0
  194  0  3   0   0   0  0  0
  195  2  0   0   0   0  0  0
  196  0  3   0   0   0  0  0
  197  2  0   0   0   0  0  0
  198  0  3   0   0   0  0  0
  199  2  0   0   0   0  0  0
  200  0  3   0   0   0  0  0
  201  2  0   0   0   0  0  0
  202  0  3   0   0   0  0  0
  203  2  0   0   0   0  0  0
  204  0  3   0   0   0  0  0
  205  2  0   0   0   0  0  0
  206  0  3   0   0   0  0  0
  207  2  0   0   0   0  0  0
  208  0  3   0   0   0  0  0
  209  2  0   0   0   0  0  0
  210  0  3   0   0   0  0  0
  211  2  0   0   0   0  0  0
  212  0  3   0   0   0  0  0
  213  2  0   0   0   0  0  0
  214  0  3   0   0   0  0  0
  215  2  0   0   0   0  0  0
  216  0  3   0   0   0  0  0
  217  2  0   0   0   0  0  0
  218  0  3   0   0   0  0  0
  219  2  0   0   0   0  0  0
  220  0  3   0   0   0  0  0
  221  0  0   1   1   1  0  0
  222  0  0   0   0   0  1  0
  223  1  0   0   0   0  0  0
  224  0  4   0   0   0  0  0
  225  2  0   0   0   0  0  0
  226  0  4   0   0   0  0  0
  227  2  0   0   0   0  0  0
  228  0  4   0   0   0  0  0
  229  2  0   0   0   0  0  0
  230  0  4   0   0   0  0  0
  231  2  0   0   0   0  0  0
  232  0  4   0   0   0  0  0
  233  2  0   0   0   0  0  0
  234  0  4   0   0   0  0  0
  235  2  0   0   0   0  0  0
  236  0  4   0   0   0  0  0
  237  2  0   0   0   0  0  0
  238  0  4   0   0   0  0  0
  239  2  0   0   0   0  0  0
  240  0  4   0   0   0  0  0
  241  2  0   0   0   0  0  0
  242  0  4   0   0   0  0  0
  243  2  0   0   0   0  0  0
  244  0  4   0   0   0  0  0
  245  2  0   0   0   0  0  0
  246  0  4   0   0   0  0  0
  247  2  0   0   0   0  0  0
  248  0  4   0   0   0  0  0
  249  2  0   0   0   0  0  0
  250  0  4   0   0   0  0  0
  251  2  0   0   0   0  0  0
  252  0  4   0   0   0  0  0
  253  2  0   0   0   0  0  0
  254  0  4   0   0   0  0  0
  255  2  0   0   0   0  0  0
  256  0  4   0   0   0  0  0
  257  2  0   0   0   0  0  0
  258  0  4   0   0   0  0  0
  259  2  0   0   0   0  0  0
  260  0  4   0   0   0  0  0
  261  2  0   0   0   0  0  0
  262  0  4   0   0   0  0  0
  263  2  0   0   0   0  0  0
  264  0  4   0   0   0  0  0
  265  2  0   0   0   0  0  0
  266  0  4   0   0   0  0  0
  267  2  0   0   0   0  0  0
  268  0  4   0   0   0  0  0
  269  2  0   0   0   0  0  0
  270  0  4   0   0   0  0  0
  271  2  0   0   0   0  0  0
  272  0  4   0   0   0  0  0
  273  2  0   0   0   0  0  0
  274  0  4   0   0   0  0  0
  275  2  0   0   0   0  0  0
  276  0  4   0   0   0  0  0
  277  2  0   0   0   0  0  0
  278  0  4   0   0   0  0  0
  279  2  0   0   0   0  0  0
  280  0  4   0   0   0  0  0
  281  2  0   0   0   0  0  0
  282  0  4   0   0   0  0  0
  283  2  0   0   0   0  0  0
  284  0  4   0   0   0  0  0
  285  2  0   0   0   0  0  0
  286  0  4   0   0   0  0  0
  287  2  0   0   0   0  0  0
  288  0  4   0   0   0  0  0
  289  2  0   0   0   0  0  0
  290  0  4   0   0   0  0  0
[RF]
1      141.677 1 2 100 -36977.6 0
2      141.677 1 2 100 -493.035 0
3      141.677 1 2 100 -486.872 0
4      141.677 1 2 100 -480.709 0
5      141.677 1 2 100 -474.546 0
6      141.677 1 2 100 -468.383 0
7      141.677 1 2 100 -462.22 0
8      141.677 1 2 100 -456.057 0
9      141.677 1 2 100 -449.894 0
10      141.677 1 2 100 -443.731 0
11      141.677 1 2 100 -437.568 0
12      141.677 1 2 100 -431.405 0
13      141.677 1 2 100 -425.243 0
14      141.677 1 2 100 -419.08 0
15      141.677 1 2 100 -412.917 0
16      141.677 1 2 100 -406.754 0
17      141.677 1 2 100 -400.591 0
18      141.677 1 2 100 -394.428 0
19      141.677 1 2 100 -388.265 0
20      141.677 1 2 100 -382.102 0
21      141.677 1 2 100 -375.939 0
22      141.677 1 2 100 -369.776 0
23      141.677 1 2 100 -363.613 0
24      141.677 1 2 100 -357.45 0
25      141.677 1 2 100 -351.287 0
26      141.677 1 2 100 -345.124 0
27      141.677 1 2 100 -338.961 0
28      141.677 1 2 100 -332.798 0
29      141.677 1 2 100 -326.636 0
30      141.677 1 2 100 -320.473 0
31      141.677 1 2 100 -314.31 0
32      141.677 1 2 100 -308.147 0
33      141.677 1 2 100 -301.984 0
34      141.677 1 2 100 -295.821 0
35      141.677 1 2 100 -289.658 0
36      141.677 1 2 100 -283.495 0
37      141.677 1 2 100 -277.332 0
38      141.677 1 2 100 -271.169 0
39      141.677 1 2 100 -265.006 0
40      141.677 1 2 100 -258.843 0
41      141.677 1 2 100 -252.68 0
42      141.677 1 2 100 -246.517 0
43      141.677 1 2 100 -240.354 0
44      141.677 1 2 100 -234.192 0
45      141.677 1 2 100 -228.029 0
46      141.677 1 2 100 -221.866 0
47      141.677 1 2 100 -215.703 0
48      141.677 1 2 100 -209.54 0
49      141.677 1 2 100 -203.377 0
50      141.677 1 2 100 -197.214 0
51      141.677 1 2 100 -191.051 0
52      141.677 1 2 100 -184.888 0
53      141.677 1 2 100 -178.725 0
54      141.677 1 2 100 -172.562 0
55      141.677 1 2 100 -166.399 0
56      141.677 1 2 100 -160.236 0
57      141.677 1 2 100 -154.073 0
58      141.677 1 2 100 -147.91 0
59      141.677 1 2 100 -141.748 0
60      141.677 1 2 100 -135.585 0
61      141.677 1 2 100 -129.422 0
62      141.677 1 2 100 -123.259 0
63      141.677 1 2 100 -117.096 0
64      141.677 1 2 100 -110.933 0
65      141.677 1 2 100 -104.77 0
66      141.677 1 2 100 -98.607 0
67      141.677 1 2 100 -92.444 0
68      141.677 1 2 100 -86.2811 0
69      141.677 1 2 100 -80.1182 0
70      141.677 1 2 100 -73.9552 0
71      141.677 1 2 100 -67.7923 0
72      141.677 1 2 100 -61.6294 0
73      141.677 1 2 100 -55.4664 0
74      141.677 1 2 100 -49.3035 0
75      141.677 1 2 100 -43.1405 0
76      141.677 1 2 100 -36.9776 0
77      141.677 1 2 100 -30.8147 0
78      141.677 1 2 100 -24.6517 0
79      141.677 1 2 100 -18.4888 0
80      141.677 1 2 100 -12.3259 0
81      141.677 1 2 100 -6.16293 0
82      141.677 1 2 100 0 0
83      141.677 1 2 100 6.16293 0
84      141.677 1 2 100 12.3259 0
85      141.677 1 2 100 18.4888 0
86      141.677 1 2 100 24.6517 0
87      141.677 1 2 100 30.8147 0
88      141.677 1 2 100 36.9776 0
89      141.677 1 2 100 43.1405 0
90      141.677 1 2 100 49.3035 0
91      141.677 1 2 100 55.4664 0
92      141.677 1 2 100 61.6294 0
93      141.677 1 2 100 67.7923 0
94      141.677 1 2 100 73.9552 0
95      141.677 1 2 100 80.1182 0
96      141.677 1 2 100 86.2811 0
97      141.677 1 2 100 92.444 0
98      141.677 1 2 100 98.607 0
99      141.677 1 2 100 104.77 0
100      141.677 1 2 100 110.933 0
101      141.677 1 2 100 117.096 0
102      141.677 1 2 100 123.259 0
103      141.677 1 2 100 129.422 0
104      141.677 1 2 100 135.585 0
105      141.677 1 2 100 141.748 0
106      141.677 1 2 100 147.91 0
107      141.677 1 2 100 154.073 0
108      141.677 1 2 100 160.236 0
109      141.677 1 2 100 166.399 0
110      141.677 1 2 100 172.562 0
111      141.677 1 2 100 178.725 0
112      141.677 1 2 100 184.888 0
113      141.677 1 2 100 191.051 0
114      141.677 1 2 100 197.214 0
115      141.677 1 2 100 203.377 0
116      141.677 1 2 100 209.54 0
117      141.677 1 2 100 215.703 0
118      141.677 1 2 100 221.866 0
119      141.677 1 2 100 228.029 0
120      141.677 1 2 100 234.192 0
121      141.677 1 2 100 240.354 0
122      141.677 1 2 100 246.517 0
123      141.677 1 2 100 252.68 0
124      141.677 1 2 100 258.843 0
125      141.677 1 2 100 265.006 0
126      141.677 1 2 100 271.169 0
127      141.677 1 2 100 277.332 0
128      141.677 1 2 100 283.495 0
129      141.677 1 2 100 289.658 0
130      141.677 1 2 100 295.821 0
131      141.677 1 2 100 301.984 0
132      141.677 1 2 100 308.147 0
133      141.677 1 2 100 314.31 0
134      141.677 1 2 100 320.473 0
135      141.677 1 2 100 326.636 0
136      141.677 1 2 100 332.798 0
137      141.677 1 2 100 338.961 0
138      141.677 1 2 100 345.124 0
139      141.677 1 2 100 351.287 0
140      141.677 1 2 100 357.45 0
141      141.677 1 2 100 363.613 0
142      141.677 1 2 100 369.776 0
143      141.677 1 2 100 375.939 0
144      141.677 1 2 100 382.102 0
145      141.677 1 2 100 388.265 0
146      141.677 1 2 100 394.428 0
147      141.677 1 2 100 400.591 0
148      141.677 1 2 100 406.754 0
149      141.677 1 2 100 412.917 0
150      141.677 1 2 100 419.08 0
151      141.677 1 2 100 425.243 0
152      141.677 1 2 100 431.405 0
153      141.677 1 2 100 437.568 0
154      141.677 1 2 100 443.731 0
155      141.677 1 2 100 449.894 0
156      141.677 1 2 100 456.057 0
157      141.677 1 2 100 462.22 0
158      141.677 1 2 100 468.383 0
159      141.677 1 2 100 474.546 0
160      141.677 1 2 100 480.709 0
161      141.677 1 2 100 486.872 0
162      141.677 1 2 100 493.035 0

# Format of trapezoid gradients:
# id amplitude rise flat fall delay
# ..      Hz/m   us   us   us    us
[TRAP]
 1  1.36244e+06 1000 4500 1000   0

# Format of ADC events:
# id num dwell delay freq phase
# ..  ..    ns    us   Hz   rad
[ADC]
1 1 1000000 0 0 0

# Format of delays:
# id delay (us)
[DELAYS]
1 3500000
2 5000

# Sequence Shapes
[SHAPES]

shape_id 1
num_samples 50030
2.8e-05
2.8e-05
4
2.81e-05
2.8e-05
2.8e-05
2
2.81e-05
2.8e-05
2.8e-05
0
2.81e-05
2.8e-05
2.8e-05
0
2.81e-05
2.8e-05
2.8e-05
0
2.81e-05
2.8e-05
2.81e-05
2.8e-05
2.81e-05
2.81e-05
0
2.8e-05
2.81e-05
2.8e-05
2.81e-05
2.81e-05
0
2.8e-05
2.81e-05
2.81e-05
2
2.8e-05
2.81e-05
2.81e-05
14
2.82e-05
2.81e-05
2.81e-05
1
2.82e-05
2.81e-05
2.81e-05
0
2.82e-05
2.81e-05
2.81e-05
0
2.82e-05
2.81e-05
2.82e-05
2.81e-05
2.82e-05
2.81e-05
2.82e-05
2.82e-05
0
2.81e-05
2.82e-05
2.81e-05
2.82e-05
2.82e-05
0
2.81e-05
2.82e-05
2.82e-05
2
2.81e-05
2.82e-05
2.82e-05
12
2.83e-05
2.82e-05
2.82e-05
2
2.83e-05
2.82e-05
2.82e-05
0
2.83e-05
2.82e-05
2.82e-05
0
2.83e-05
2.82e-05
2.83e-05
2.82e-05
2.83e-05
2.82e-05
2.83e-05
2.82e-05
2.83e-05
2.83e-05
0
2.82e-05
2.83e-05
2.83e-05
0
2.82e-05
2.83e-05
2.83e-05
1
2.82e-05
2.83e-05
2.83e-05
15
2.84e-05
2.83e-05
2.83e-05
1
2.84e-05
2.83e-05
2.83e-05
0
2.84e-05
2.83e-05
2.83e-05
0
2.84e-05
2.83e-05
2.84e-05
2.83e-05
2.84e-05
2.83e-05
2.84e-05
2.83e-05
2.84e-05
2.84e-05
0
2.83e-05
2.84e-05
2.84e-05
0
2.83e-05
2.84e-05
2.84e-05
2
2.83e-05
2.84e-05
2.84e-05
12
2.85e-05
2.84e-05
2.84e-05
1
2.85e-05
2.84e-05
2.84e-05
0
2.85e-05
2.84e-05
2.84e-05
0
2.85e-05
2.84e-05
2.85e-05
2.84e-05
2.84e-05
0
2.85e-05
2.85e-05
0
2.84e-05
2.85e-05
2.84e-05
2.85e-05
2.85e-05
0
2.84e-05
2.85e-05
2.85e-05
0
2.84e-05
2.85e-05
2.85e-05
2
2.84e-05
2.85e-05
2.85e-05
10
2.86e-05
2.85e-05
2.85e-05
2
2.86e-05
2.85e-05
2.85e-05
0
2.86e-05
2.85e-05
2.85e-05
0
2.86e-05
2.85e-05
2.86e-05
2.85e-05
2.86e-05
2.85e-05
2.86e-05
2.85e-05
2.86e-05
2.85e-05
2.86e-05
2.86e-05
0
2.85e-05
2.86e-05
2.86e-05
0
2.85e-05
2.86e-05
2.86e-05
2
2.85e-05
2.86e-05
2.86e-05
10
2.87e-05
2.86e-05
2.86e-05
2
2.87e-05
2.86e-05
2.86e-05
0
2.87e-05
2.86e-05
2.86e-05
0
2.87e-05
2.86e-05
2.86e-05
0
2.87e-05
2.86e-05
2.87e-05
2.86e-05
2.87e-05
2.87e-05
0
2.86e-05
2.87e-05
2.86e-05
2.87e-05
2.87e-05
1
2.86e-05
2.87e-05
2.87e-05
1
2.86e-05
2.87e-05
2.87e-05
12
2.88e-05
2.87e-05
2.87e-05
1
2.88e-05
2.87e-05
2.87e-05
1
2.88e-05
2.87e-05
2.88e-05
2.87e-05
2.87e-05
0
2.88e-05
2.87e-05
2.88e-05
2.87e-05
2.88e-05
2.88e-05
0
2.87e-05
2.88e-05
2.87e-05
2.88e-05
2.88e-05
0
2.87e-05
2.88e-05
2.88e-05
2
2.87e-05
2.88e-05
2.88e-05
12
2.89e-05
2.88e-05
2.88e-05
2
2.89e-05
2.88e-05
2.88e-05
0
2.89e-05
2.88e-05
2.89e-05
2.88e-05
2.88e-05
0
2.89e-05
2.88e-05
2.89e-05
2.88e-05
2.89e-05
2.89e-05
0
2.88e-05
2.89e-05
2.88e-05
2.89e-05
2.89e-05
1
2.88e-05
2.89e-05
2.89e-05
1
2.88e-05
2.89e-05
2.89e-05
11
2.9e-05
2.89e-05
2.89e-05
2
2.9e-05
2.89e-05
2.89e-05
0
2.9e-05
2.89e-05
2.89e-05
0
2.9e-05
2.89e-05
2.9e-05
2.89e-05
2.9e-05
2.89e-05
2.9e-05
2.89e-05
2.9e-05
2.89e-05
2.9e-05
2.9e-05
0
2.89e-05
2.9e-05
2.9e-05
1
2.89e-05
2.9e-05
2.9e-05
3
2.89e-05
2.9e-05
2.9e-05
5
2.91e-05
2.9e-05
2.9e-05
3
2.91e-05
2.9e-05
2.9e-05
1
2.91e-05
2.9e-05
2.9e-05
0
2.91e-05
2.9e-05
2.91e-05
2.9e-05
2.91e-05
2.9e-05
2.91e-05
2.9e-05
2.91e-05
2.9e-05
2.91e-05
2.91e-05
0
2.9e-05
2.91e-05
2.91e-05
0
2.9e-05
2.91e-05
2.91e-05
2
2.9e-05
2.91e-05
2.91e-05
10
2.92e-05
2.91e-05
2.91e-05
2
2.92e-05
2.91e-05
2.91e-05
0
2.92e-05
2.91e-05
2.91e-05
0
2.92e-05
2.91e-05
2.92e-05
2.91e-05
2.91e-05
0
2.92e-05
2.92e-05
0
2.91e-05
2.92e-05
2.91e-05
2.92e-05
2.92e-05
0
2.91e-05
2.92e-05
2.92e-05
0
2.91e-05
2.92e-05
2.92e-05
2
2.91e-05
2.92e-05
2.92e-05
9
2.93e-05
2.92e-05
2.92e-05
2
2.93e-05
2.92e-05
2.92e-05
1
2.93e-05
2.92e-05
2.93e-05
2.92e-05
2.92e-05
0
2.93e-05
2.92e-05
2.93e-05
2.92e-05
2.93e-05
2.93e-05
0
2.92e-05
2.93e-05
2.92e-05
2.93e-05
2.93e-05
0
2.92e-05
2.93e-05
2.93e-05
2
2.92e-05
2.93e-05
2.93e-05
12
2.94e-05
2.93e-05
2.93e-05
2
2.94e-05
2.93e-05
2.93e-05
0
2.94e-05
2.93e-05
2.93e-05
0
2.94e-05
2.93e-05
2.94e-05
2.93e-05
2.94e-05
2.93e-05
2.94e-05
2.94e-05
0
2.93e-05
2.94e-05
2.93e-05
2.94e-05
2.94e-05
1
2.93e-05
2.94e-05
2.94e-05
2
2.93e-05
2.94e-05
2.94e-05
9
2.95e-05
2.94e-05
2.94e-05
2
2.95e-05
2.94e-05
2.94e-05
0
2.95e-05
2.94e-05
2.94e-05
0
2.95e-05
2.94e-05
2.95e-05
2.94e-05
2.94e-05
0
2.95e-05
2.95e-05
0
2.94e-05
2.95e-05
2.94e-05
2.95e-05
2.95e-05
0
2.94e-05
2.95e-05
2.95e-05
0
2.94e-05
2.95e-05
2.95e-05
2
2.94e-05
2.95e-05
2.95e-05
9
2.96e-05
2.95e-05
2.95e-05
2
2.96e-05
2.95e-05
2.95e-05
0
2.96e-05
2.95e-05
2.95e-05
0
2.96e-05
2.95e-05
2.95e-05
0
2.96e-05
2.95e-05
2.96e-05
2.95e-05
2.96e-05
2.96e-05
0
2.95e-05
2.96e-05
2.95e-05
2.96e-05
2.96e-05
1
2.95e-05
2.96e-05
2.96e-05
1
2.95e-05
2.96e-05
2.96e-05
11
2.97e-05
2.96e-05
2.96e-05
2
2.97e-05
2.96e-05
2.96e-05
0
2.97e-05
2.96e-05
2.96e-05
0
2.97e-05
2.96e-05
2.97e-05
2.96e-05
2.97e-05
2.96e-05
2.97e-05
2.96e-05
2.97e-05
2.97e-05
0
2.96e-05
2.97e-05
2.97e-05
0
2.96e-05
2.97e-05
2.97e-05
1
2.96e-05
2.97e-05
2.97e-05
13
2.98e-05
2.97e-05
2.97e-05
2
2.98e-05
2.97e-05
2.97e-05
0
2.98e-05
2.97e-05
2.98e-05
2.97e-05
2.98e-05
2.97e-05
2.98e-05
2.97e-05
2.98e-05
2.97e-05
2.98e-05
2.97e-05
2.98e-05
2.98e-05
0
2.97e-05
2.98e-05
2.98e-05
1
2.97e-05
2.98e-05
2.98e-05
15
2.99e-05
2.98e-05
2.98e-05
1
2.99e-05
2.98e-05
2.98e-05
0
2.99e-05
2.98e-05
2.98e-05
0
2.99e-05
2.98e-05
2.99e-05
2.98e-05
2.99e-05
2.98e-05
2.99e-05
2.99e-05
0
2.98e-05
2.99e-05
2.99e-05
0
2.98e-05
2.99e-05
2.99e-05
1
2.98e-05
2.99e-05
2.99e-05
4
2.98e-05
2.99e-05
2.99e-05
1
3e-05
2.99e-05
2.99e-05
4
3e-05
2.99e-05
2.99e-05
1
3e-05
2.99e-05
2.99e-05
0
3e-05
2.99e-05
2.99e-05
0
3e-05
2.99e-05
3e-05
2.99e-05
3e-05
2.99e-05
3e-05
3e-05
0
2.99e-05
3e-05
3e-05
0
2.99e-05
3e-05
3e-05
1
2.99e-05
3e-05
3e-05
15
3.01e-05
3e-05
3e-05
1
3.01e-05
3e-05
3e-05
0
3.01e-05
3e-05
3.01e-05
3e-05
3.01e-05
3e-05
3.01e-05
3e-05
3.01e-05
3e-05
3.01e-05
3.01e-05
0
3e-05
3.01e-05
3.01e-05
0
3e-05
3.01e-05
3.01e-05
2
3e-05
3.01e-05
3.01e-05
10
3.02e-05
3.01e-05
3.01e-05
2
3.02e-05
3.01e-05
3.01e-05
0
3.02e-05
3.01e-05
3.01e-05
0
3.02e-05
3.01e-05
3.02e-05
3.01e-05
3.02e-05
3.01e-05
3.02e-05
3.01e-05
3.02e-05
3.02e-05
0
3.01e-05
3.02e-05
3.02e-05
0
3.01e-05
3.02e-05
3.02e-05
1
3.01e-05
3.02e-05
3.02e-05
12
3.03e-05
3.02e-05
3.02e-05
2
3.03e-05
3.02e-05
3.02e-05
0
3.03e-05
3.02e-05
3.02e-05
0
3.03e-05
3.02e-05
3.03e-05
3.02e-05
3.03e-05
3.02e-05
3.03e-05
3.03e-05
0
3.02e-05
3.03e-05
3.02e-05
3.03e-05
3.03e-05
1
3.02e-05
3.03e-05
3.03e-05
2
3.02e-05
3.03e-05
3.03e-05
8
3.04e-05
3.03e-05
3.03e-05
2
3.04e-05
3.03e-05
3.03e-05
0
3.04e-05
3.03e-05
3.03e-05
0
3.04e-05
3.03e-05
3.03e-05
0
3.04e-05
3.03e-05
3.04e-05
3.03e-05
3.04e-05
3.04e-05
0
3.03e-05
3.04e-05
3.03e-05
3.04e-05
3.04e-05
1
3.03e-05
3.04e-05
3.04e-05
2
3.03e-05
3.04e-05
3.04e-05
9
3.05e-05
3.04e-05
3.04e-05
2
3.05e-05
3.04e-05
3.04e-05
0
3.05e-05
3.04e-05
3.04e-05
0
3.05e-05
3.04e-05
3.05e-05
3.04e-05
3.05e-05
3.04e-05
3.05e-05
3.04e-05
3.05e-05
3.05e-05
0
3.04e-05
3.05e-05
3.05e-05
0
3.04e-05
3.05e-05
3.05e-05
1
3.04e-05
3.05e-05
3.05e-05
13
3.06e-05
3.05e-05
3.05e-05
1
3.06e-05
3.05e-05
3.05e-05
1
3.06e-05
3.05e-05
3.06e-05
3.05e-05
3.06e-05
3.05e-05
3.06e-05
3.05e-05
3.06e-05
3.05e-05
3.06e-05
3.06e-05
0
3.05e-05
3.06e-05
3.06e-05
0
3.05e-05
3.06e-05
3.06e-05
2
3.05e-05
3.06e-05
3.06e-05
10
3.07e-05
3.06e-05
3.06e-05
1
3.07e-05
3.06e-05
3.06e-05
1
3.07e-05
3.06e-05
3.07e-05
3.06e-05
3.06e-05
0
3.07e-05
3.06e-05
3.07e-05
3.06e-05
3.07e-05
3.07e-05
0
3.06e-05
3.07e-05
3.07e-05
0
3.06e-05
3.07e-05
3.07e-05
0
3.06e-05
3.07e-05
3.07e-05
3
3.06e-05
3.07e-05
3.07e-05
6
3.08e-05
3.07e-05
3.07e-05
3
3.08e-05
3.07e-05
3.07e-05
0
3.08e-05
3.07e-05
3.07e-05
0
3.08e-05
3.07e-05
3.08e-05
3.07e-05
3.08e-05
3.07e-05
3.08e-05
3.07e-05
3.08e-05
3.07e-05
3.08e-05
3.08e-05
0
3.07e-05
3.08e-05
3.08e-05
1
3.07e-05
3.08e-05
3.08e-05
4
3.07e-05
3.08e-05
3.08e-05
2
3.09e-05
3.08e-05
3.08e-05
4
3.09e-05
3.08e-05
3.08e-05
0
3.09e-05
3.08e-05
3.08e-05
0
3.09e-05
3.08e-05
3.08e-05
0
3.09e-05
3.08e-05
3.09e-05
3.08e-05
3.09e-05
3.08e-05
3.09e-05
3.09e-05
0
3.08e-05
3.09e-05
3.09e-05
0
3.08e-05
3.09e-05
3.09e-05
1
3.08e-05
3.09e-05
3.09e-05
14
3.1e-05
3.09e-05
3.09e-05
1
3.1e-05
3.09e-05
3.09e-05
0
3.1e-05
3.09e-05
3.1e-05
3.09e-05
3.1e-05
3.09e-05
3.1e-05
3.09e-05
3.1e-05
3.09e-05
3.1e-05
3.1e-05
0
3.09e-05
3.1e-05
3.1e-05
0
3.09e-05
3.1e-05
3.1e-05
2
3.09e-05
3.1e-05
3.1e-05
9
3.11e-05
3.1e-05
3.1e-05
2
3.11e-05
3.1e-05
3.1e-05
0
3.11e-05
3.1e-05
3.1e-05
0
3.11e-05
3.1e-05
3.11e-05
3.1e-05
3.11e-05
3.1e-05
3.11e-05
3.1e-05
3.11e-05
3.1e-05
3.11e-05
3.11e-05
0
3.1e-05
3.11e-05
3.11e-05
1
3.1e-05
3.11e-05
3.11e-05
14
3.12e-05
3.11e-05
3.11e-05
1
3.12e-05
3.11e-05
3.11e-05
0
3.12e-05
3.11e-05
3.11e-05
0
3.12e-05
3.11e-05
3.12e-05
3.11e-05
3.12e-05
3.11e-05
3.12e-05
3.12e-05
0
3.11e-05
3.12e-05
3.12e-05
0
3.11e-05
3.12e-05
3.12e-05
0
3.11e-05
3.12e-05
3.12e-05
15
3.13e-05
3.12e-05
3.12e-05
1
3.13e-05
3.12e-05
3.12e-05
0
3.13e-05
3.12e-05
3.12e-05
0
3.13e-05
3.12e-05
3.13e-05
3.12e-05
3.13e-05
3.13e-05
0
3.12e-05
3.13e-05
3.12e-05
3.13e-05
3.13e-05
0
3.12e-05
3.13e-05
3.13e-05
2
3.12e-05
3.13e-05
3.13e-05
11
3.14e-05
3.13e-05
3.13e-05
2
3.14e-05
3.13e-05
3.13e-05
0
3.14e-05
3.13e-05
3.14e-05
3.13e-05
3.13e-05
0
3.14e-05
3.13e-05
3.14e-05
3.14e-05
0
3.13e-05
3.14e-05
3.13e-05
3.14e-05
3.14e-05
0
3.13e-05
3.14e-05
3.14e-05
1
3.13e-05
3.14e-05
3.14e-05
14
3.15e-05
3.14e-05
3.14e-05
1
3.15e-05
3.14e-05
3.14e-05
0
3.15e-05
3.14e-05
3.15e-05
3.14e-05
3.15e-05
3.14e-05
3.15e-05
3.14e-05
3.15e-05
3.14e-05
3.15e-05
3.15e-05
0
3.14e-05
3.15e-05
3.15e-05
0
3.14e-05
3.15e-05
3.15e-05
2
3.14e-05
3.15e-05
3.15e-05
9
3.16e-05
3.15e-05
3.15e-05
2
3.16e-05
3.15e-05
3.15e-05
0
3.16e-05
3.15e-05
3.15e-05
0
3.16e-05
3.15e-05
3.16e-05
3.15e-05
3.16e-05
3.15e-05
3.16e-05
3.15e-05
3.16e-05
3.16e-05
0
3.15e-05
3.16e-05
3.16e-05
0
3.15e-05
3.16e-05
3.16e-05
2
3.15e-05
3.16e-05
3.16e-05
9
3.17e-05
3.16e-05
3.16e-05
2
3.17e-05
3.16e-05
3.16e-05
0
3.17e-05
3.16e-05
3.16e-05
0
3.17e-05
3.16e-05
3.17e-05
3.16e-05
3.17e-05
3.16e-05
3.17e-05
3.16e-05
3.17e-05
3.17e-05
0
3.16e-05
3.17e-05
3.17e-05
0
3.16e-05
3.17e-05
3.17e-05
1
3.16e-05
3.17e-05
3.17e-05
11
3.18e-05
3.17e-05
3.17e-05
2
3.18e-05
3.17e-05
3.17e-05
0
3.18e-05
3.17e-05
3.18e-05
3.17e-05
3.17e-05
0
3.18e-05
3.17e-05
3.18e-05
3.17e-05
3.18e-05
3.18e-05
0
3.17e-05
3.18e-05
3.18e-05
0
3.17e-05
3.18e-05
3.18e-05
1
3.17e-05
3.18e-05
3.18e-05
14
3.19e-05
3.18e-05
3.18e-05
1
3.19e-05
3.18e-05
3.18e-05
0
3.19e-05
3.18e-05
3.19e-05
3.18e-05
3.19e-05
3.18e-05
3.19e-05
3.18e-05
3.19e-05
3.18e-05
3.19e-05
3.19e-05
0
3.18e-05
3.19e-05
3.19e-05
0
3.18e-05
3.19e-05
3.19e-05
2
3.18e-05
3.19e-05
3.19e-05
8
3.2e-05
3.19e-05
3.19e-05
2
3.2e-05
3.19e-05
3.19e-05
0
3.2e-05
3.19e-05
3.19e-05
0
3.2e-05
3.19e-05
3.2e-05
3.19e-05
3.2e-05
3.19e-05
3.2e-05
3.19e-05
3.2e-05
3.19e-05
3.2e-05
3.2e-05
0
3.19e-05
3.2e-05
3.2e-05
2
3.19e-05
3.2e-05
3.2e-05
12
3.21e-05
3.2e-05
3.2e-05
1
3.21e-05
3.2e-05
3.2e-05
0
3.21e-05
3.2e-05
3.2e-05
0
3.21e-05
3.2e-05
3.21e-05
3.2e-05
3.21e-05
3.2e-05
3.21e-05
3.2e-05
3.21e-05
3.21e-05
0
3.2e-05
3.21e-05
3.21e-05
1
3.2e-05
3.21e-05
3.21e-05
4
3.2e-05
3.21e-05
3.21e-05
2
3.22e-05
3.21e-05
3.21e-05
4
3.22e-05
3.21e-05
3.21e-05
0
3.22e-05
3.21e-05
3.21e-05
0
3.22e-05
3.21e-05
3.22e-05
3.21e-05
3.21e-05
0
3.22e-05
3.21e-05
3.22e-05
3.22e-05
0
3.21e-05
3.22e-05
3.22e-05
0
3.21e-05
3.22e-05
3.22e-05
0
3.21e-05
3.22e-05
3.22e-05
3
3.21e-05
3.22e-05
3.22e-05
5
3.23e-05
3.22e-05
3.22e-05
3
3.23e-05
3.22e-05
3.22e-05
0
3.23e-05
3.22e-05
3.22e-05
0
3.23e-05
3.22e-05
3.22e-05
0
3.23e-05
3.22e-05
3.23e-05
3.22e-05
3.23e-05
3.23e-05
0
3.22e-05
3.23e-05
3.23e-05
0
3.22e-05
3.23e-05
3.23e-05
0
3.22e-05
3.23e-05
3.23e-05
4
3.22e-05
3.23e-05
3.23e-05
3
3.24e-05
3.23e-05
3.23e-05
3
3.24e-05
3.23e-05
3.23e-05
1
3.24e-05
3.23e-05
3.23e-05
0
3.24e-05
3.23e-05
3.24e-05
3.23e-05
3.24e-05
3.23e-05
3.24e-05
3.23e-05
3.24e-05
3.24e-05
0
3.23e-05
3.24e-05
3.24e-05
0
3.23e-05
3.24e-05
3.24e-05
1
3.23e-05
3.24e-05
3.24e-05
12
3.25e-05
3.24e-05
3.24e-05
1
3.25e-05
3.24e-05
3.24e-05
0
3.25e-05
3.24e-05
3.24e-05
0
3.25e-05
3.24e-05
3.25e-05
3.24e-05
3.25e-05
3.24e-05
3.25e-05
3.25e-05
0
3.24e-05
3.25e-05
3.25e-05
0
3.24e-05
3.25e-05
3.25e-05
1
3.24e-05
3.25e-05
3.25e-05
13
3.26e-05
3.25e-05
3.25e-05
1
3.26e-05
3.25e-05
3.25e-05
0
3.26e-05
3.25e-05
3.26e-05
3.25e-05
3.25e-05
0
3.26e-05
3.25e-05
3.26e-05
3.26e-05
0
3.25e-05
3.26e-05
3.25e-05
3.26e-05
3.26e-05
1
3.25e-05
3.26e-05
3.26e-05
2
3.25e-05
3.26e-05
3.26e-05
8
3.27e-05
3.26e-05
3.26e-05
2
3.27e-05
3.26e-05
3.26e-05
0
3.27e-05
3.26e-05
3.26e-05
0
3.27e-05
3.26e-05
3.27e-05
3.26e-05
3.27e-05
3.26e-05
3.27e-05
3.26e-05
3.27e-05
3.27e-05
0
3.26e-05
3.27e-05
3.27e-05
0
3.26e-05
3.27e-05
3.27e-05
2
3.26e-05
3.27e-05
3.27e-05
9
3.28e-05
3.27e-05
3.27e-05
2
3.28e-05
3.27e-05
3.27e-05
0
3.28e-05
3.27e-05
3.28e-05
3.27e-05
3.27e-05
0
3.28e-05
3.27e-05
3.28e-05
3.27e-05
3.28e-05
3.28e-05
0
3.27e-05
3.28e-05
3.28e-05
0
3.27e-05
3.28e-05
3.28e-05
1
3.27e-05
3.28e-05
3.28e-05
13
3.29e-05
3.28e-05
3.28e-05
1
3.29e-05
3.28e-05
3.28e-05
0
3.29e-05
3.28e-05
3.28e-05
0
3.29e-05
3.28e-05
3.29e-05
3.28e-05
3.29e-05
3.28e-05
3.29e-05
3.29e-05
0
3.28e-05
3.29e-05
3.29e-05
0
3.28e-05
3.29e-05
3.29e-05
2
3.28e-05
3.29e-05
3.29e-05
10
3.3e-05
3.29e-05
3.29e-05
1
3.3e-05
3.29e-05
3.29e-05
0
3.3e-05
3.29e-05
3.29e-05
0
3.3e-05
3.29e-05
3.3e-05
3.29e-05
3.3e-05
3.29e-05
3.3e-05
3.29e-05
3.3e-05
3.3e-05
0
3.29e-05
3.3e-05
3.3e-05
0
3.29e-05
3.3e-05
3.3e-05
2
3.29e-05
3.3e-05
3.3e-05
8
3.31e-05
3.3e-05
3.3e-05
2
3.31e-05
3.3e-05
3.3e-05
0
3.31e-05
3.3e-05
3.3e-05
0
3.31e-05
3.3e-05
3.31e-05
3.3e-05
3.31e-05
3.3e-05
3.31e-05
3.3e-05
3.31e-05
3.31e-05
0
3.3e-05
3.31e-05
3.31e-05
0
3.3e-05
3.31e-05
3.31e-05
3
3.3e-05
3.31e-05
3.31e-05
6
3.32e-05
3.31e-05
3.31e-05
3
3.32e-05
3.31e-05
3.31e-05
0
3.32e-05
3.31e-05
3.31e-05
0
3.32e-05
3.31e-05
3.32e-05
3.31e-05
3.32e-05
3.31e-05
3.32e-05
3.31e-05
3.32e-05
3.32e-05
0
3.31e-05
3.32e-05
3.32e-05
0
3.31e-05
3.32e-05
3.32e-05
3
3.31e-05
3.32e-05
3.32e-05
6
3.33e-05
3.32e-05
3.32e-05
3
3.33e-05
3.32e-05
3.32e-05
0
3.33e-05
3.32e-05
3.32e-05
0
3.33e-05
3.32e-05
3.33e-05
3.32e-05
3.33e-05
3.32e-05
3.33e-05
3.32e-05
3.33e-05
3.33e-05
0
3.32e-05
3.33e-05
3.33e-05
1
3.32e-05
3.33e-05
3.33e-05
2
3.32e-05
3.33e-05
3.33e-05
6
3.34e-05
3.33e-05
3.33e-05
2
