# Pulseq sequence file
# Created by MATLAB mr toolbox

# Created for Pulseq-CEST
# https://pulseq-cest.github.io/
# Created by: Moritz Zaiss
# Created at: 24-Nov-2023 10:25:55

[VERSION]
major 1
minor 3
revision 1

[DEFINITIONS]
B0 3 
B1pa 0.574 
B1pa_N 0.287 0.574 0.86 1.147 
B1rms 0.500832771 
DCsat 0.505928854 
M0_offset -300 
Trec 0 
Trec_M0 12 
Tsat 3.2184 
n_pulses 80 
num_meas 162 
offsets_ppm -300 -4 -3.95 -3.9 -3.85 -3.8 -3.75 -3.7 -3.65 -3.6 -3.55 -3.5 -3.45 -3.4 -3.35 -3.3 -3.25 -3.2 -3.15 -3.1 -3.05 -3 -2.95 -2.9 -2.85 -2.8 -2.75 -2.7 -2.65 -2.6 -2.55 -2.5 -2.45 -2.4 -2.35 -2.3 -2.25 -2.2 -2.15 -2.1 -2.05 -2 -1.95 -1.9 -1.85 -1.8 -1.75 -1.7 -1.65 -1.6 -1.55 -1.5 -1.45 -1.4 -1.35 -1.3 -1.25 -1.2 -1.15 -1.1 -1.05 -1 -0.95 -0.9 -0.85 -0.8 -0.75 -0.7 -0.65 -0.6 -0.55 -0.5 -0.45 -0.4 -0.35 -0.3 -0.25 -0.2 -0.15 -0.1 -0.05 0 0.05 0.1 0.15 0.2 0.25 0.3 0.35 0.4 0.45 0.5 0.55 0.6 0.65 0.7 0.75 0.8 0.85 0.9 0.95 1 1.05 1.1 1.15 1.2 1.25 1.3 1.35 1.4 1.45 1.5 1.55 1.6 1.65 1.7 1.75 1.8 1.85 1.9 1.95 2 2.05 2.1 2.15 2.2 2.25 2.3 2.35 2.4 2.45 2.5 2.55 2.6 2.65 2.7 2.75 2.8 2.85 2.9 2.95 3 3.05 3.1 3.15 3.2 3.25 3.3 3.35 3.4 3.45 3.5 3.55 3.6 3.65 3.7 3.75 3.8 3.85 3.9 3.95 4 
seq_id_string  
spoiling 1 
td 0.02 
tp 0.02048 

# Format of blocks:
#  #  D RF  GX  GY  GZ ADC EXT
[BLOCKS]
    1  1  0   0   0   0  0  0
    2  0  1   0   0   0  0  0
    3  2  0   0   0   0  0  0
    4  0  2   0   0   0  0  0
    5  2  0   0   0   0  0  0
    6  0  3   0   0   0  0  0
    7  2  0   0   0   0  0  0
    8  0  4   0   0   0  0  0
    9  2  0   0   0   0  0  0
   10  0  5   0   0   0  0  0
   11  2  0   0   0   0  0  0
   12  0  6   0   0   0  0  0
   13  2  0   0   0   0  0  0
   14  0  7   0   0   0  0  0
   15  2  0   0   0   0  0  0
   16  0  8   0   0   0  0  0
   17  2  0   0   0   0  0  0
   18  0  9   0   0   0  0  0
   19  2  0   0   0   0  0  0
   20  0 10   0   0   0  0  0
   21  2  0   0   0   0  0  0
   22  0 11   0   0   0  0  0
   23  2  0   0   0   0  0  0
   24  0 12   0   0   0  0  0
   25  2  0   0   0   0  0  0
   26  0 13   0   0   0  0  0
   27  2  0   0   0   0  0  0
   28  0 14   0   0   0  0  0
   29  2  0   0   0   0  0  0
   30  0 15   0   0   0  0  0
   31  2  0   0   0   0  0  0
   32  0 16   0   0   0  0  0
   33  2  0   0   0   0  0  0
   34  0 17   0   0   0  0  0
   35  2  0   0   0   0  0  0
   36  0 18   0   0   0  0  0
   37  2  0   0   0   0  0  0
   38  0 19   0   0   0  0  0
   39  2  0   0   0   0  0  0
   40  0 20   0   0   0  0  0
   41  2  0   0   0   0  0  0
   42  0 21   0   0   0  0  0
   43  2  0   0   0   0  0  0
   44  0 22   0   0   0  0  0
   45  2  0   0   0   0  0  0
   46  0 23   0   0   0  0  0
   47  2  0   0   0   0  0  0
   48  0 24   0   0   0  0  0
   49  2  0   0   0   0  0  0
   50  0 25   0   0   0  0  0
   51  2  0   0   0   0  0  0
   52  0 26   0   0   0  0  0
   53  2  0   0   0   0  0  0
   54  0 27   0   0   0  0  0
   55  2  0   0   0   0  0  0
   56  0 28   0   0   0  0  0
   57  2  0   0   0   0  0  0
   58  0 29   0   0   0  0  0
   59  2  0   0   0   0  0  0
   60  0 30   0   0   0  0  0
   61  2  0   0   0   0  0  0
   62  0 31   0   0   0  0  0
   63  2  0   0   0   0  0  0
   64  0 32   0   0   0  0  0
   65  2  0   0   0   0  0  0
   66  0 33   0   0   0  0  0
   67  2  0   0   0   0  0  0
   68  0 34   0   0   0  0  0
   69  2  0   0   0   0  0  0
   70  0 35   0   0   0  0  0
   71  2  0   0   0   0  0  0
   72  0 36   0   0   0  0  0
   73  2  0   0   0   0  0  0
   74  0 37   0   0   0  0  0
   75  2  0   0   0   0  0  0
   76  0 38   0   0   0  0  0
   77  2  0   0   0   0  0  0
   78  0 39   0   0   0  0  0
   79  2  0   0   0   0  0  0
   80  0 40   0   0   0  0  0
   81  2  0   0   0   0  0  0
   82  0 41   0   0   0  0  0
   83  2  0   0   0   0  0  0
   84  0 42   0   0   0  0  0
   85  2  0   0   0   0  0  0
   86  0 43   0   0   0  0  0
   87  2  0   0   0   0  0  0
   88  0 44   0   0   0  0  0
   89  2  0   0   0   0  0  0
   90  0 45   0   0   0  0  0
   91  2  0   0   0   0  0  0
   92  0 46   0   0   0  0  0
   93  2  0   0   0   0  0  0
   94  0 47   0   0   0  0  0
   95  2  0   0   0   0  0  0
   96  0 48   0   0   0  0  0
   97  2  0   0   0   0  0  0
   98  0 49   0   0   0  0  0
   99  2  0   0   0   0  0  0
  100  0 50   0   0   0  0  0
  101  2  0   0   0   0  0  0
  102  0 51   0   0   0  0  0
  103  2  0   0   0   0  0  0
  104  0 52   0   0   0  0  0
  105  2  0   0   0   0  0  0
  106  0 53   0   0   0  0  0
  107  2  0   0   0   0  0  0
  108  0 54   0   0   0  0  0
  109  2  0   0   0   0  0  0
  110  0 55   0   0   0  0  0
  111  2  0   0   0   0  0  0
  112  0 56   0   0   0  0  0
  113  2  0   0   0   0  0  0
  114  0 57   0   0   0  0  0
  115  2  0   0   0   0  0  0
  116  0 58   0   0   0  0  0
  117  2  0   0   0   0  0  0
  118  0 59   0   0   0  0  0
  119  2  0   0   0   0  0  0
  120  0 60   0   0   0  0  0
  121  2  0   0   0   0  0  0
  122  0 61   0   0   0  0  0
  123  2  0   0   0   0  0  0
  124  0 62   0   0   0  0  0
  125  2  0   0   0   0  0  0
  126  0 63   0   0   0  0  0
  127  2  0   0   0   0  0  0
  128  0 64   0   0   0  0  0
  129  2  0   0   0   0  0  0
  130  0 65   0   0   0  0  0
  131  2  0   0   0   0  0  0
  132  0 66   0   0   0  0  0
  133  2  0   0   0   0  0  0
  134  0 67   0   0   0  0  0
  135  2  0   0   0   0  0  0
  136  0 68   0   0   0  0  0
  137  2  0   0   0   0  0  0
  138  0 69   0   0   0  0  0
  139  2  0   0   0   0  0  0
  140  0 70   0   0   0  0  0
  141  2  0   0   0   0  0  0
  142  0 71   0   0   0  0  0
  143  2  0   0   0   0  0  0
  144  0 72   0   0   0  0  0
  145  2  0   0   0   0  0  0
  146  0 73   0   0   0  0  0
  147  2  0   0   0   0  0  0
  148  0 74   0   0   0  0  0
  149  2  0   0   0   0  0  0
  150  0 75   0   0   0  0  0
  151  2  0   0   0   0  0  0
  152  0 76   0   0   0  0  0
  153  2  0   0   0   0  0  0
  154  0 77   0   0   0  0  0
  155  2  0   0   0   0  0  0
  156  0 78   0   0   0  0  0
  157  2  0   0   0   0  0  0
  158  0 79   0   0   0  0  0
  159  2  0   0   0   0  0  0
  160  0 80   0   0   0  0  0
  161  0  0   1   1   1  0  0
  162  0  0   0   0   0  1  0
  163  0 81   0   0   0  0  0
  164  2  0   0   0   0  0  0
  165  0 82   0   0   0  0  0
  166  2  0   0   0   0  0  0
  167  0 83   0   0   0  0  0
  168  2  0   0   0   0  0  0
  169  0 84   0   0   0  0  0
  170  2  0   0   0   0  0  0
  171  0 85   0   0   0  0  0
  172  2  0   0   0   0  0  0
  173  0 86   0   0   0  0  0
  174  2  0   0   0   0  0  0
  175  0 87   0   0   0  0  0
  176  2  0   0   0   0  0  0
  177  0 88   0   0   0  0  0
  178  2  0   0   0   0  0  0
  179  0 89   0   0   0  0  0
  180  2  0   0   0   0  0  0
  181  0 90   0   0   0  0  0
  182  2  0   0   0   0  0  0
  183  0 91   0   0   0  0  0
  184  2  0   0   0   0  0  0
  185  0 92   0   0   0  0  0
  186  2  0   0   0   0  0  0
  187  0 93   0   0   0  0  0
  188  2  0   0   0   0  0  0
  189  0 94   0   0   0  0  0
  190  2  0   0   0   0  0  0
  191  0 95   0   0   0  0  0
  192  2  0   0   0   0  0  0
  193  0 96   0   0   0  0  0
  194  2  0   0   0   0  0  0
  195  0 97   0   0   0  0  0
  196  2  0   0   0   0  0  0
  197  0 98   0   0   0  0  0
  198  2  0   0   0   0  0  0
  199  0 99   0   0   0  0  0
  200  2  0   0   0   0  0  0
  201  0 100   0   0   0  0  0
  202  2  0   0   0   0  0  0
  203  0 101   0   0   0  0  0
  204  2  0   0   0   0  0  0
  205  0 102   0   0   0  0  0
  206  2  0   0   0   0  0  0
  207  0 103   0   0   0  0  0
  208  2  0   0   0   0  0  0
  209  0 104   0   0   0  0  0
  210  2  0   0   0   0  0  0
  211  0 105   0   0   0  0  0
  212  2  0   0   0   0  0  0
  213  0 106   0   0   0  0  0
  214  2  0   0   0   0  0  0
  215  0 107   0   0   0  0  0
  216  2  0   0   0   0  0  0
  217  0 108   0   0   0  0  0
  218  2  0   0   0   0  0  0
  219  0 109   0   0   0  0  0
  220  2  0   0   0   0  0  0
  221  0 110   0   0   0  0  0
  222  2  0   0   0   0  0  0
  223  0 111   0   0   0  0  0
  224  2  0   0   0   0  0  0
  225  0 112   0   0   0  0  0
  226  2  0   0   0   0  0  0
  227  0 113   0   0   0  0  0
  228  2  0   0   0   0  0  0
  229  0 114   0   0   0  0  0
  230  2  0   0   0   0  0  0
  231  0 115   0   0   0  0  0
  232  2  0   0   0   0  0  0
  233  0 116   0   0   0  0  0
  234  2  0   0   0   0  0  0
  235  0 117   0   0   0  0  0
  236  2  0   0   0   0  0  0
  237  0 118   0   0   0  0  0
  238  2  0   0   0   0  0  0
  239  0 119   0   0   0  0  0
  240  2  0   0   0   0  0  0
  241  0 120   0   0   0  0  0
  242  2  0   0   0   0  0  0
  243  0 121   0   0   0  0  0
  244  2  0   0   0   0  0  0
  245  0 122   0   0   0  0  0
  246  2  0   0   0   0  0  0
  247  0 123   0   0   0  0  0
  248  2  0   0   0   0  0  0
  249  0 124   0   0   0  0  0
  250  2  0   0   0   0  0  0
  251  0 125   0   0   0  0  0
  252  2  0   0   0   0  0  0
  253  0 126   0   0   0  0  0
  254  2  0   0   0   0  0  0
  255  0 127   0   0   0  0  0
  256  2  0   0   0   0  0  0
  257  0 128   0   0   0  0  0
  258  2  0   0   0   0  0  0
  259  0 129   0   0   0  0  0
  260  2  0   0   0   0  0  0
  261  0 130   0   0   0  0  0
  262  2  0   0   0   0  0  0
  263  0 131   0   0   0  0  0
  264  2  0   0   0   0  0  0
  265  0 132   0   0   0  0  0
  266  2  0   0   0   0  0  0
  267  0 133   0   0   0  0  0
  268  2  0   0   0   0  0  0
  269  0 134   0   0   0  0  0
  270  2  0   0   0   0  0  0
  271  0 135   0   0   0  0  0
  272  2  0   0   0   0  0  0
  273  0 136   0   0   0  0  0
  274  2  0   0   0   0  0  0
  275  0 137   0   0   0  0  0
  276  2  0   0   0   0  0  0
  277  0 138   0   0   0  0  0
  278  2  0   0   0   0  0  0
  279  0 139   0   0   0  0  0
  280  2  0   0   0   0  0  0
  281  0 140   0   0   0  0  0
  282  2  0   0   0   0  0  0
  283  0 141   0   0   0  0  0
  284  2  0   0   0   0  0  0
  285  0 142   0   0   0  0  0
  286  2  0   0   0   0  0  0
  287  0 143   0   0   0  0  0
  288  2  0   0   0   0  0  0
[RF]
1      49.0782 1 2 100 -38318.8 0
2      49.0782 1 2 100 -38318.8 1.69718
3      49.0782 1 2 100 -38318.8 3.39435
4      49.0782 1 2 100 -38318.8 5.09153
5      49.0782 1 2 100 -38318.8 0.505519
6      49.0782 1 2 100 -38318.8 2.2027
7      49.0782 1 2 100 -38318.8 3.89987
8      49.0782 1 2 100 -38318.8 5.59705
9      49.0782 1 2 100 -38318.8 1.01104
10      49.0782 1 2 100 -38318.8 2.70821
11      49.0782 1 2 100 -38318.8 4.40539
12      49.0782 1 2 100 -38318.8 6.10257
13      49.0782 1 2 100 -38318.8 1.51656
14      49.0782 1 2 100 -38318.8 3.21373
15      49.0782 1 2 100 -38318.8 4.91091
16      49.0782 1 2 100 -38318.8 0.3249
17      49.0782 1 2 100 -38318.8 2.02208
18      49.0782 1 2 100 -38318.8 3.71925
19      49.0782 1 2 100 -38318.8 5.41643
20      49.0782 1 2 100 -38318.8 0.830419
21      49.0782 1 2 100 -38318.8 2.52759
22      49.0782 1 2 100 -38318.8 4.22477
23      49.0782 1 2 100 -38318.8 5.92195
24      49.0782 1 2 100 -38318.8 1.33594
25      49.0782 1 2 100 -38318.8 3.03311
26      49.0782 1 2 100 -38318.8 4.73029
27      49.0782 1 2 100 -38318.8 0.144281
28      49.0782 1 2 100 -38318.8 1.84146
29      49.0782 1 2 100 -38318.8 3.53863
30      49.0782 1 2 100 -38318.8 5.23581
31      49.0782 1 2 100 -38318.8 0.649799
32      49.0782 1 2 100 -38318.8 2.34698
33      49.0782 1 2 100 -38318.8 4.04415
34      49.0782 1 2 100 -38318.8 5.74133
35      49.0782 1 2 100 -38318.8 1.15532
36      49.0782 1 2 100 -38318.8 2.85249
37      49.0782 1 2 100 -38318.8 4.54967
38      49.0782 1 2 100 -38318.8 6.24685
39      49.0782 1 2 100 -38318.8 1.66084
40      49.0782 1 2 100 -38318.8 3.35801
41      49.0782 1 2 100 -38318.8 5.05519
42      49.0782 1 2 100 -38318.8 0.46918
43      49.0782 1 2 100 -38318.8 2.16636
44      49.0782 1 2 100 -38318.8 3.86353
45      49.0782 1 2 100 -38318.8 5.56071
46      49.0782 1 2 100 -38318.8 0.974699
47      49.0782 1 2 100 -38318.8 2.67188
48      49.0782 1 2 100 -38318.8 4.36905
49      49.0782 1 2 100 -38318.8 6.06623
50      49.0782 1 2 100 -38318.8 1.48022
51      49.0782 1 2 100 -38318.8 3.17739
52      49.0782 1 2 100 -38318.8 4.87457
53      49.0782 1 2 100 -38318.8 0.288561
54      49.0782 1 2 100 -38318.8 1.98574
55      49.0782 1 2 100 -38318.8 3.68291
56      49.0782 1 2 100 -38318.8 5.38009
57      49.0782 1 2 100 -38318.8 0.79408
58      49.0782 1 2 100 -38318.8 2.49126
59      49.0782 1 2 100 -38318.8 4.18843
60      49.0782 1 2 100 -38318.8 5.88561
61      49.0782 1 2 100 -38318.8 1.2996
62      49.0782 1 2 100 -38318.8 2.99678
63      49.0782 1 2 100 -38318.8 4.69395
64      49.0782 1 2 100 -38318.8 0.107942
65      49.0782 1 2 100 -38318.8 1.80512
66      49.0782 1 2 100 -38318.8 3.50229
67      49.0782 1 2 100 -38318.8 5.19947
68      49.0782 1 2 100 -38318.8 0.613461
69      49.0782 1 2 100 -38318.8 2.31064
70      49.0782 1 2 100 -38318.8 4.00781
71      49.0782 1 2 100 -38318.8 5.70499
72      49.0782 1 2 100 -38318.8 1.11898
73      49.0782 1 2 100 -38318.8 2.81616
74      49.0782 1 2 100 -38318.8 4.51333
75      49.0782 1 2 100 -38318.8 6.21051
76      49.0782 1 2 100 -38318.8 1.6245
77      49.0782 1 2 100 -38318.8 3.32167
78      49.0782 1 2 100 -38318.8 5.01885
79      49.0782 1 2 100 -38318.8 0.432842
80      49.0782 1 2 100 -38318.8 2.13002
81      49.0782 1 2 100 -510.917 0
82      49.0782 1 2 100 -510.917 3.37366
83      49.0782 1 2 100 -510.917 0.464137
84      49.0782 1 2 100 -510.917 3.8378
85      49.0782 1 2 100 -510.917 0.928274
86      49.0782 1 2 100 -510.917 4.30194
87      49.0782 1 2 100 -510.917 1.39241
88      49.0782 1 2 100 -510.917 4.76607
89      49.0782 1 2 100 -510.917 1.85655
90      49.0782 1 2 100 -510.917 5.23021
91      49.0782 1 2 100 -510.917 2.32069
92      49.0782 1 2 100 -510.917 5.69435
93      49.0782 1 2 100 -510.917 2.78482
94      49.0782 1 2 100 -510.917 6.15848
95      49.0782 1 2 100 -510.917 3.24896
96      49.0782 1 2 100 -510.917 0.339435
97      49.0782 1 2 100 -510.917 3.7131
98      49.0782 1 2 100 -510.917 0.803572
99      49.0782 1 2 100 -510.917 4.17723
100      49.0782 1 2 100 -510.917 1.26771
101      49.0782 1 2 100 -510.917 4.64137
102      49.0782 1 2 100 -510.917 1.73185
103      49.0782 1 2 100 -510.917 5.10551
104      49.0782 1 2 100 -510.917 2.19598
105      49.0782 1 2 100 -510.917 5.56964
106      49.0782 1 2 100 -510.917 2.66012
107      49.0782 1 2 100 -510.917 6.03378
108      49.0782 1 2 100 -510.917 3.12426
109      49.0782 1 2 100 -510.917 0.214733
110      49.0782 1 2 100 -510.917 3.58839
111      49.0782 1 2 100 -510.917 0.67887
112      49.0782 1 2 100 -510.917 4.05253
113      49.0782 1 2 100 -510.917 1.14301
114      49.0782 1 2 100 -510.917 4.51667
115      49.0782 1 2 100 -510.917 1.60714
116      49.0782 1 2 100 -510.917 4.98081
117      49.0782 1 2 100 -510.917 2.07128
118      49.0782 1 2 100 -510.917 5.44494
119      49.0782 1 2 100 -510.917 2.53542
120      49.0782 1 2 100 -510.917 5.90908
121      49.0782 1 2 100 -510.917 2.99956
122      49.0782 1 2 100 -510.917 0.0900315
123      49.0782 1 2 100 -510.917 3.46369
124      49.0782 1 2 100 -510.917 0.554169
125      49.0782 1 2 100 -510.917 3.92783
126      49.0782 1 2 100 -510.917 1.01831
127      49.0782 1 2 100 -510.917 4.39197
128      49.0782 1 2 100 -510.917 1.48244
129      49.0782 1 2 100 -510.917 4.8561
130      49.0782 1 2 100 -510.917 1.94658
131      49.0782 1 2 100 -510.917 5.32024
132      49.0782 1 2 100 -510.917 2.41072
133      49.0782 1 2 100 -510.917 5.78438
134      49.0782 1 2 100 -510.917 2.87485
135      49.0782 1 2 100 -510.917 6.24852
136      49.0782 1 2 100 -510.917 3.33899
137      49.0782 1 2 100 -510.917 0.429467
138      49.0782 1 2 100 -510.917 3.80313
139      49.0782 1 2 100 -510.917 0.893604
140      49.0782 1 2 100 -510.917 4.26726
141      49.0782 1 2 100 -510.917 1.35774
142      49.0782 1 2 100 -510.917 4.7314
143      49.0782 1 2 100 -510.917 1.82188
144      49.0782 1 2 100 -510.917 5.19554
145      49.0782 1 2 100 -510.917 2.28601
146      49.0782 1 2 100 -510.917 5.65968
147      49.0782 1 2 100 -510.917 2.75015
148      49.0782 1 2 100 -510.917 6.12381
149      49.0782 1 2 100 -510.917 3.21429
150      49.0782 1 2 100 -510.917 0.304765
151      49.0782 1 2 100 -510.917 3.67843
152      49.0782 1 2 100 -510.917 0.768902
153      49.0782 1 2 100 -510.917 4.14256
154      49.0782 1 2 100 -510.917 1.23304
155      49.0782 1 2 100 -510.917 4.6067
156      49.0782 1 2 100 -510.917 1.69718
157      49.0782 1 2 100 -510.917 5.07084
158      49.0782 1 2 100 -510.917 2.16131
159      49.0782 1 2 100 -510.917 5.53497
160      49.0782 1 2 100 -510.917 2.62545
161      49.0782 1 2 100 -504.53 0
162      49.0782 1 2 100 -504.53 4.19543
163      49.0782 1 2 100 -504.53 2.10767
164      49.0782 1 2 100 -504.53 0.0199146
165      49.0782 1 2 100 -504.53 4.21534
166      49.0782 1 2 100 -504.53 2.12759
167      49.0782 1 2 100 -504.53 0.0398291
168      49.0782 1 2 100 -504.53 4.23526
169      49.0782 1 2 100 -504.53 2.1475
170      49.0782 1 2 100 -504.53 0.0597437
171      49.0782 1 2 100 -504.53 4.25517
172      49.0782 1 2 100 -504.53 2.16742
173      49.0782 1 2 100 -504.53 0.0796583
174      49.0782 1 2 100 -504.53 4.27509
175      49.0782 1 2 100 -504.53 2.18733
176      49.0782 1 2 100 -504.53 0.0995728
177      49.0782 1 2 100 -504.53 4.295
178      49.0782 1 2 100 -504.53 2.20724
179      49.0782 1 2 100 -504.53 0.119487
180      49.0782 1 2 100 -504.53 4.31492
181      49.0782 1 2 100 -504.53 2.22716
182      49.0782 1 2 100 -504.53 0.139402
183      49.0782 1 2 100 -504.53 4.33483
184      49.0782 1 2 100 -504.53 2.24707
185      49.0782 1 2 100 -504.53 0.159317
186      49.0782 1 2 100 -504.53 4.35474
187      49.0782 1 2 100 -504.53 2.26699
188      49.0782 1 2 100 -504.53 0.179231
189      49.0782 1 2 100 -504.53 4.37466
190      49.0782 1 2 100 -504.53 2.2869
191      49.0782 1 2 100 -504.53 0.199146
192      49.0782 1 2 100 -504.53 4.39457
193      49.0782 1 2 100 -504.53 2.30682
194      49.0782 1 2 100 -504.53 0.21906
195      49.0782 1 2 100 -504.53 4.41449
196      49.0782 1 2 100 -504.53 2.32673
197      49.0782 1 2 100 -504.53 0.238975
198      49.0782 1 2 100 -504.53 4.4344
199      49.0782 1 2 100 -504.53 2.34665
200      49.0782 1 2 100 -504.53 0.258889
201      49.0782 1 2 100 -504.53 4.45432
202      49.0782 1 2 100 -504.53 2.36656
203      49.0782 1 2 100 -504.53 0.278804
204      49.0782 1 2 100 -504.53 4.47423
205      49.0782 1 2 100 -504.53 2.38648
206      49.0782 1 2 100 -504.53 0.298718
207      49.0782 1 2 100 -504.53 4.49415
208      49.0782 1 2 100 -504.53 2.40639
209      49.0782 1 2 100 -504.53 0.318633
210      49.0782 1 2 100 -504.53 4.51406
211      49.0782 1 2 100 -504.53 2.4263
212      49.0782 1 2 100 -504.53 0.338548
213      49.0782 1 2 100 -504.53 4.53398
214      49.0782 1 2 100 -504.53 2.44622
215      49.0782 1 2 100 -504.53 0.358462
216      49.0782 1 2 100 -504.53 4.55389
217      49.0782 1 2 100 -504.53 2.46613
218      49.0782 1 2 100 -504.53 0.378377
219      49.0782 1 2 100 -504.53 4.57381
220      49.0782 1 2 100 -504.53 2.48605
221      49.0782 1 2 100 -504.53 0.398291
222      49.0782 1 2 100 -504.53 4.59372
223      49.0782 1 2 100 -504.53 2.50596
224      49.0782 1 2 100 -504.53 0.418206
225      49.0782 1 2 100 -504.53 4.61363
226      49.0782 1 2 100 -504.53 2.52588
227      49.0782 1 2 100 -504.53 0.43812
228      49.0782 1 2 100 -504.53 4.63355
229      49.0782 1 2 100 -504.53 2.54579
230      49.0782 1 2 100 -504.53 0.458035
231      49.0782 1 2 100 -504.53 4.65346
232      49.0782 1 2 100 -504.53 2.56571
233      49.0782 1 2 100 -504.53 0.47795
234      49.0782 1 2 100 -504.53 4.67338
235      49.0782 1 2 100 -504.53 2.58562
236      49.0782 1 2 100 -504.53 0.497864
237      49.0782 1 2 100 -504.53 4.69329
238      49.0782 1 2 100 -504.53 2.60554
239      49.0782 1 2 100 -504.53 0.517779
240      49.0782 1 2 100 -504.53 4.71321
241      49.0782 1 2 100 -498.144 0
242      49.0782 1 2 100 -498.144 5.0172
243      49.0782 1 2 100 -498.144 3.75121
244      49.0782 1 2 100 -498.144 2.48522
245      49.0782 1 2 100 -498.144 1.21923
246      49.0782 1 2 100 -498.144 6.23642
247      49.0782 1 2 100 -498.144 4.97043
248      49.0782 1 2 100 -498.144 3.70444
249      49.0782 1 2 100 -498.144 2.43845
250      49.0782 1 2 100 -498.144 1.17246
251      49.0782 1 2 100 -498.144 6.18966
252      49.0782 1 2 100 -498.144 4.92367
253      49.0782 1 2 100 -498.144 3.65768
254      49.0782 1 2 100 -498.144 2.39169
255      49.0782 1 2 100 -498.144 1.1257
256      49.0782 1 2 100 -498.144 6.1429
257      49.0782 1 2 100 -498.144 4.87691
258      49.0782 1 2 100 -498.144 3.61092
259      49.0782 1 2 100 -498.144 2.34493
260      49.0782 1 2 100 -498.144 1.07894
261      49.0782 1 2 100 -498.144 6.09613
262      49.0782 1 2 100 -498.144 4.83014
263      49.0782 1 2 100 -498.144 3.56415
264      49.0782 1 2 100 -498.144 2.29816
265      49.0782 1 2 100 -498.144 1.03217
266      49.0782 1 2 100 -498.144 6.04937
267      49.0782 1 2 100 -498.144 4.78338
268      49.0782 1 2 100 -498.144 3.51739
269      49.0782 1 2 100 -498.144 2.2514
270      49.0782 1 2 100 -498.144 0.985411
271      49.0782 1 2 100 -498.144 6.00261
272      49.0782 1 2 100 -498.144 4.73662
273      49.0782 1 2 100 -498.144 3.47063
274      49.0782 1 2 100 -498.144 2.20464
275      49.0782 1 2 100 -498.144 0.938647
276      49.0782 1 2 100 -498.144 5.95584
277      49.0782 1 2 100 -498.144 4.68985
278      49.0782 1 2 100 -498.144 3.42386
279      49.0782 1 2 100 -498.144 2.15787
280      49.0782 1 2 100 -498.144 0.891884
281      49.0782 1 2 100 -498.144 5.90908
282      49.0782 1 2 100 -498.144 4.64309
283      49.0782 1 2 100 -498.144 3.3771
284      49.0782 1 2 100 -498.144 2.11111
285      49.0782 1 2 100 -498.144 0.845121
286      49.0782 1 2 100 -498.144 5.86232
287      49.0782 1 2 100 -498.144 4.59633
288      49.0782 1 2 100 -498.144 3.33034
289      49.0782 1 2 100 -498.144 2.06435
290      49.0782 1 2 100 -498.144 0.798358
291      49.0782 1 2 100 -498.144 5.81555
292      49.0782 1 2 100 -498.144 4.54956
293      49.0782 1 2 100 -498.144 3.28357
294      49.0782 1 2 100 -498.144 2.01758
295      49.0782 1 2 100 -498.144 0.751595
296      49.0782 1 2 100 -498.144 5.76879
297      49.0782 1 2 100 -498.144 4.5028
298      49.0782 1 2 100 -498.144 3.23681
299      49.0782 1 2 100 -498.144 1.97082
300      49.0782 1 2 100 -498.144 0.704831
301      49.0782 1 2 100 -498.144 5.72203
302      49.0782 1 2 100 -498.144 4.45604
303      49.0782 1 2 100 -498.144 3.19005
304      49.0782 1 2 100 -498.144 1.92406
305      49.0782 1 2 100 -498.144 0.658068
306      49.0782 1 2 100 -498.144 5.67526
307      49.0782 1 2 100 -498.144 4.40927
308      49.0782 1 2 100 -498.144 3.14328
309      49.0782 1 2 100 -498.144 1.87729
310      49.0782 1 2 100 -498.144 0.611305
311      49.0782 1 2 100 -498.144 5.6285
312      49.0782 1 2 100 -498.144 4.36251
313      49.0782 1 2 100 -498.144 3.09652
314      49.0782 1 2 100 -498.144 1.83053
315      49.0782 1 2 100 -498.144 0.564542
316      49.0782 1 2 100 -498.144 5.58174
317      49.0782 1 2 100 -498.144 4.31575
318      49.0782 1 2 100 -498.144 3.04976
319      49.0782 1 2 100 -498.144 1.78377
320      49.0782 1 2 100 -498.144 0.517779
321      49.0782 1 2 100 -491.757 0
322      49.0782 1 2 100 -491.757 5.83896
323      49.0782 1 2 100 -491.757 5.39474
324      49.0782 1 2 100 -491.757 4.95052
325      49.0782 1 2 100 -491.757 4.5063
326      49.0782 1 2 100 -491.757 4.06207
327      49.0782 1 2 100 -491.757 3.61785
328      49.0782 1 2 100 -491.757 3.17363
329      49.0782 1 2 100 -491.757 2.72941
330      49.0782 1 2 100 -491.757 2.28518
331      49.0782 1 2 100 -491.757 1.84096
332      49.0782 1 2 100 -491.757 1.39674
333      49.0782 1 2 100 -491.757 0.952515
334      49.0782 1 2 100 -491.757 0.508293
335      49.0782 1 2 100 -491.757 0.0640705
336      49.0782 1 2 100 -491.757 5.90303
337      49.0782 1 2 100 -491.757 5.45881
338      49.0782 1 2 100 -491.757 5.01459
339      49.0782 1 2 100 -491.757 4.57037
340      49.0782 1 2 100 -491.757 4.12614
341      49.0782 1 2 100 -491.757 3.68192
342      49.0782 1 2 100 -491.757 3.2377
343      49.0782 1 2 100 -491.757 2.79348
344      49.0782 1 2 100 -491.757 2.34925
345      49.0782 1 2 100 -491.757 1.90503
346      49.0782 1 2 100 -491.757 1.46081
347      49.0782 1 2 100 -491.757 1.01659
348      49.0782 1 2 100 -491.757 0.572364
349      49.0782 1 2 100 -491.757 0.128141
350      49.0782 1 2 100 -491.757 5.9671
351      49.0782 1 2 100 -491.757 5.52288
352      49.0782 1 2 100 -491.757 5.07866
353      49.0782 1 2 100 -491.757 4.63444
354      49.0782 1 2 100 -491.757 4.19021
355      49.0782 1 2 100 -491.757 3.74599
356      49.0782 1 2 100 -491.757 3.30177
357      49.0782 1 2 100 -491.757 2.85755
358      49.0782 1 2 100 -491.757 2.41332
359      49.0782 1 2 100 -491.757 1.9691
360      49.0782 1 2 100 -491.757 1.52488
361      49.0782 1 2 100 -491.757 1.08066
362      49.0782 1 2 100 -491.757 0.636434
363      49.0782 1 2 100 -491.757 0.192212
364      49.0782 1 2 100 -491.757 6.03117
365      49.0782 1 2 100 -491.757 5.58695
366      49.0782 1 2 100 -491.757 5.14273
367      49.0782 1 2 100 -491.757 4.69851
368      49.0782 1 2 100 -491.757 4.25428
369      49.0782 1 2 100 -491.757 3.81006
370      49.0782 1 2 100 -491.757 3.36584
371      49.0782 1 2 100 -491.757 2.92162
372      49.0782 1 2 100 -491.757 2.47739
373      49.0782 1 2 100 -491.757 2.03317
374      49.0782 1 2 100 -491.757 1.58895
375      49.0782 1 2 100 -491.757 1.14473
376      49.0782 1 2 100 -491.757 0.700505
377      49.0782 1 2 100 -491.757 0.256282
378      49.0782 1 2 100 -491.757 6.09524
379      49.0782 1 2 100 -491.757 5.65102
380      49.0782 1 2 100 -491.757 5.2068
381      49.0782 1 2 100 -491.757 4.76258
382      49.0782 1 2 100 -491.757 4.31836
383      49.0782 1 2 100 -491.757 3.87413
384      49.0782 1 2 100 -491.757 3.42991
385      49.0782 1 2 100 -491.757 2.98569
386      49.0782 1 2 100 -491.757 2.54147
387      49.0782 1 2 100 -491.757 2.09724
388      49.0782 1 2 100 -491.757 1.65302
389      49.0782 1 2 100 -491.757 1.2088
390      49.0782 1 2 100 -491.757 0.764575
391      49.0782 1 2 100 -491.757 0.320353
392      49.0782 1 2 100 -491.757 6.15932
393      49.0782 1 2 100 -491.757 5.71509
394      49.0782 1 2 100 -491.757 5.27087
395      49.0782 1 2 100 -491.757 4.82665
396      49.0782 1 2 100 -491.757 4.38243
397      49.0782 1 2 100 -491.757 3.9382
398      49.0782 1 2 100 -491.757 3.49398
399      49.0782 1 2 100 -491.757 3.04976
400      49.0782 1 2 100 -491.757 2.60554
401      49.0782 1 2 100 -485.371 0
402      49.0782 1 2 100 -485.371 0.377545
403      49.0782 1 2 100 -485.371 0.755089
404      49.0782 1 2 100 -485.371 1.13263
405      49.0782 1 2 100 -485.371 1.51018
406      49.0782 1 2 100 -485.371 1.88772
407      49.0782 1 2 100 -485.371 2.26527
408      49.0782 1 2 100 -485.371 2.64281
409      49.0782 1 2 100 -485.371 3.02036
410      49.0782 1 2 100 -485.371 3.3979
411      49.0782 1 2 100 -485.371 3.77545
412      49.0782 1 2 100 -485.371 4.15299
413      49.0782 1 2 100 -485.371 4.53054
414      49.0782 1 2 100 -485.371 4.90808
415      49.0782 1 2 100 -485.371 5.28563
416      49.0782 1 2 100 -485.371 5.66317
417      49.0782 1 2 100 -485.371 6.04072
418      49.0782 1 2 100 -485.371 0.135075
419      49.0782 1 2 100 -485.371 0.51262
420      49.0782 1 2 100 -485.371 0.890165
421      49.0782 1 2 100 -485.371 1.26771
422      49.0782 1 2 100 -485.371 1.64525
423      49.0782 1 2 100 -485.371 2.0228
424      49.0782 1 2 100 -485.371 2.40034
425      49.0782 1 2 100 -485.371 2.77789
426      49.0782 1 2 100 -485.371 3.15543
427      49.0782 1 2 100 -485.371 3.53298
428      49.0782 1 2 100 -485.371 3.91052
429      49.0782 1 2 100 -485.371 4.28807
430      49.0782 1 2 100 -485.371 4.66561
431      49.0782 1 2 100 -485.371 5.04316
432      49.0782 1 2 100 -485.371 5.4207
433      49.0782 1 2 100 -485.371 5.79825
434      49.0782 1 2 100 -485.371 6.17579
435      49.0782 1 2 100 -485.371 0.27015
436      49.0782 1 2 100 -485.371 0.647695
437      49.0782 1 2 100 -485.371 1.02524
438      49.0782 1 2 100 -485.371 1.40278
439      49.0782 1 2 100 -485.371 1.78033
440      49.0782 1 2 100 -485.371 2.15787
441      49.0782 1 2 100 -485.371 2.53542
442      49.0782 1 2 100 -485.371 2.91296
443      49.0782 1 2 100 -485.371 3.29051
444      49.0782 1 2 100 -485.371 3.66805
445      49.0782 1 2 100 -485.371 4.0456
446      49.0782 1 2 100 -485.371 4.42314
447      49.0782 1 2 100 -485.371 4.80069
448      49.0782 1 2 100 -485.371 5.17823
449      49.0782 1 2 100 -485.371 5.55578
450      49.0782 1 2 100 -485.371 5.93332
451      49.0782 1 2 100 -485.371 0.0276806
452      49.0782 1 2 100 -485.371 0.405225
453      49.0782 1 2 100 -485.371 0.78277
454      49.0782 1 2 100 -485.371 1.16031
455      49.0782 1 2 100 -485.371 1.53786
456      49.0782 1 2 100 -485.371 1.9154
457      49.0782 1 2 100 -485.371 2.29295
458      49.0782 1 2 100 -485.371 2.67049
459      49.0782 1 2 100 -485.371 3.04804
460      49.0782 1 2 100 -485.371 3.42558
461      49.0782 1 2 100 -485.371 3.80313
462      49.0782 1 2 100 -485.371 4.18067
463      49.0782 1 2 100 -485.371 4.55822
464      49.0782 1 2 100 -485.371 4.93576
465      49.0782 1 2 100 -485.371 5.31331
466      49.0782 1 2 100 -485.371 5.69085
467      49.0782 1 2 100 -485.371 6.0684
468      49.0782 1 2 100 -485.371 0.162756
469      49.0782 1 2 100 -485.371 0.5403
470      49.0782 1 2 100 -485.371 0.917845
471      49.0782 1 2 100 -485.371 1.29539
472      49.0782 1 2 100 -485.371 1.67293
473      49.0782 1 2 100 -485.371 2.05048
474      49.0782 1 2 100 -485.371 2.42802
475      49.0782 1 2 100 -485.371 2.80557
476      49.0782 1 2 100 -485.371 3.18311
477      49.0782 1 2 100 -485.371 3.56066
478      49.0782 1 2 100 -485.371 3.9382
479      49.0782 1 2 100 -485.371 4.31575
480      49.0782 1 2 100 -485.371 4.69329
