# Pulseq sequence file
# Created by MATLAB mr toolbox

# Created for Pulseq-CEST
# https://pulseq-cest.github.io/
# Created by: Moritz Zaiss
# Created at: 24-Nov-2023 12:01:28

[VERSION]
major 1
minor 3
revision 1

[DEFINITIONS]
B0 3 
B1pa 0.287 
B1pa_N 0.287 0.574 0.86 1.147 
B1rms 0.250416385 
DCsat 0.505928854 
M0_offset -300 
Trec 0 
Trec_M0 12 
Tsat 3.2184 
n_pulses 80 
num_meas 162 
offsets_ppm -300 -4 -3.95 -3.9 -3.85 -3.8 -3.75 -3.7 -3.65 -3.6 -3.55 -3.5 -3.45 -3.4 -3.35 -3.3 -3.25 -3.2 -3.15 -3.1 -3.05 -3 -2.95 -2.9 -2.85 -2.8 -2.75 -2.7 -2.65 -2.6 -2.55 -2.5 -2.45 -2.4 -2.35 -2.3 -2.25 -2.2 -2.15 -2.1 -2.05 -2 -1.95 -1.9 -1.85 -1.8 -1.75 -1.7 -1.65 -1.6 -1.55 -1.5 -1.45 -1.4 -1.35 -1.3 -1.25 -1.2 -1.15 -1.1 -1.05 -1 -0.95 -0.9 -0.85 -0.8 -0.75 -0.7 -0.65 -0.6 -0.55 -0.5 -0.45 -0.4 -0.35 -0.3 -0.25 -0.2 -0.15 -0.1 -0.05 0 0.05 0.1 0.15 0.2 0.25 0.3 0.35 0.4 0.45 0.5 0.55 0.6 0.65 0.7 0.75 0.8 0.85 0.9 0.95 1 1.05 1.1 1.15 1.2 1.25 1.3 1.35 1.4 1.45 1.5 1.55 1.6 1.65 1.7 1.75 1.8 1.85 1.9 1.95 2 2.05 2.1 2.15 2.2 2.25 2.3 2.35 2.4 2.45 2.5 2.55 2.6 2.65 2.7 2.75 2.8 2.85 2.9 2.95 3 3.05 3.1 3.15 3.2 3.25 3.3 3.35 3.4 3.45 3.5 3.55 3.6 3.65 3.7 3.75 3.8 3.85 3.9 3.95 4 
seq_id_string  
spoiling 1 
td 0.02 
tp 0.02048 

# Format of blocks:
#  #  D RF  GX  GY  GZ ADC EXT
[BLOCKS]
    1  1  0   0   0   0  0  0
    2  0  1   0   0   0  0  0
    3  0  0   1   1   1  0  0
    4  0  2   0   0   0  0  0
    5  0  0   1   1   1  0  0
    6  0  3   0   0   0  0  0
    7  0  0   1   1   1  0  0
    8  0  4   0   0   0  0  0
    9  0  0   1   1   1  0  0
   10  0  5   0   0   0  0  0
   11  0  0   1   1   1  0  0
   12  0  6   0   0   0  0  0
   13  0  0   1   1   1  0  0
   14  0  7   0   0   0  0  0
   15  0  0   1   1   1  0  0
   16  0  8   0   0   0  0  0
   17  0  0   1   1   1  0  0
   18  0  9   0   0   0  0  0
   19  0  0   1   1   1  0  0
   20  0 10   0   0   0  0  0
   21  0  0   1   1   1  0  0
   22  0 11   0   0   0  0  0
   23  0  0   1   1   1  0  0
   24  0 12   0   0   0  0  0
   25  0  0   1   1   1  0  0
   26  0 13   0   0   0  0  0
   27  0  0   1   1   1  0  0
   28  0 14   0   0   0  0  0
   29  0  0   1   1   1  0  0
   30  0 15   0   0   0  0  0
   31  0  0   1   1   1  0  0
   32  0 16   0   0   0  0  0
   33  0  0   1   1   1  0  0
   34  0 17   0   0   0  0  0
   35  0  0   1   1   1  0  0
   36  0 18   0   0   0  0  0
   37  0  0   1   1   1  0  0
   38  0 19   0   0   0  0  0
   39  0  0   1   1   1  0  0
   40  0 20   0   0   0  0  0
   41  0  0   1   1   1  0  0
   42  0 21   0   0   0  0  0
   43  0  0   1   1   1  0  0
   44  0 22   0   0   0  0  0
   45  0  0   1   1   1  0  0
   46  0 23   0   0   0  0  0
   47  0  0   1   1   1  0  0
   48  0 24   0   0   0  0  0
   49  0  0   1   1   1  0  0
   50  0 25   0   0   0  0  0
   51  0  0   1   1   1  0  0
   52  0 26   0   0   0  0  0
   53  0  0   1   1   1  0  0
   54  0 27   0   0   0  0  0
   55  0  0   1   1   1  0  0
   56  0 28   0   0   0  0  0
   57  0  0   1   1   1  0  0
   58  0 29   0   0   0  0  0
   59  0  0   1   1   1  0  0
   60  0 30   0   0   0  0  0
   61  0  0   1   1   1  0  0
   62  0 31   0   0   0  0  0
   63  0  0   1   1   1  0  0
   64  0 32   0   0   0  0  0
   65  0  0   1   1   1  0  0
   66  0 33   0   0   0  0  0
   67  0  0   1   1   1  0  0
   68  0 34   0   0   0  0  0
   69  0  0   1   1   1  0  0
   70  0 35   0   0   0  0  0
   71  0  0   1   1   1  0  0
   72  0 36   0   0   0  0  0
   73  0  0   1   1   1  0  0
   74  0 37   0   0   0  0  0
   75  0  0   1   1   1  0  0
   76  0 38   0   0   0  0  0
   77  0  0   1   1   1  0  0
   78  0 39   0   0   0  0  0
   79  0  0   1   1   1  0  0
   80  0 40   0   0   0  0  0
   81  0  0   1   1   1  0  0
   82  0 41   0   0   0  0  0
   83  0  0   1   1   1  0  0
   84  0 42   0   0   0  0  0
   85  0  0   1   1   1  0  0
   86  0 43   0   0   0  0  0
   87  0  0   1   1   1  0  0
   88  0 44   0   0   0  0  0
   89  0  0   1   1   1  0  0
   90  0 45   0   0   0  0  0
   91  0  0   1   1   1  0  0
   92  0 46   0   0   0  0  0
   93  0  0   1   1   1  0  0
   94  0 47   0   0   0  0  0
   95  0  0   1   1   1  0  0
   96  0 48   0   0   0  0  0
   97  0  0   1   1   1  0  0
   98  0 49   0   0   0  0  0
   99  0  0   1   1   1  0  0
  100  0 50   0   0   0  0  0
  101  0  0   1   1   1  0  0
  102  0 51   0   0   0  0  0
  103  0  0   1   1   1  0  0
  104  0 52   0   0   0  0  0
  105  0  0   1   1   1  0  0
  106  0 53   0   0   0  0  0
  107  0  0   1   1   1  0  0
  108  0 54   0   0   0  0  0
  109  0  0   1   1   1  0  0
  110  0 55   0   0   0  0  0
  111  0  0   1   1   1  0  0
  112  0 56   0   0   0  0  0
  113  0  0   1   1   1  0  0
  114  0 57   0   0   0  0  0
  115  0  0   1   1   1  0  0
  116  0 58   0   0   0  0  0
  117  0  0   1   1   1  0  0
  118  0 59   0   0   0  0  0
  119  0  0   1   1   1  0  0
  120  0 60   0   0   0  0  0
  121  0  0   1   1   1  0  0
  122  0 61   0   0   0  0  0
  123  0  0   1   1   1  0  0
  124  0 62   0   0   0  0  0
  125  0  0   1   1   1  0  0
  126  0 63   0   0   0  0  0
  127  0  0   1   1   1  0  0
  128  0 64   0   0   0  0  0
  129  0  0   1   1   1  0  0
  130  0 65   0   0   0  0  0
  131  0  0   1   1   1  0  0
  132  0 66   0   0   0  0  0
  133  0  0   1   1   1  0  0
  134  0 67   0   0   0  0  0
  135  0  0   1   1   1  0  0
  136  0 68   0   0   0  0  0
  137  0  0   1   1   1  0  0
  138  0 69   0   0   0  0  0
  139  0  0   1   1   1  0  0
  140  0 70   0   0   0  0  0
  141  0  0   1   1   1  0  0
  142  0 71   0   0   0  0  0
  143  0  0   1   1   1  0  0
  144  0 72   0   0   0  0  0
  145  0  0   1   1   1  0  0
  146  0 73   0   0   0  0  0
  147  0  0   1   1   1  0  0
  148  0 74   0   0   0  0  0
  149  0  0   1   1   1  0  0
  150  0 75   0   0   0  0  0
  151  0  0   1   1   1  0  0
  152  0 76   0   0   0  0  0
  153  0  0   1   1   1  0  0
  154  0 77   0   0   0  0  0
  155  0  0   1   1   1  0  0
  156  0 78   0   0   0  0  0
  157  0  0   1   1   1  0  0
  158  0 79   0   0   0  0  0
  159  0  0   1   1   1  0  0
  160  0 80   0   0   0  0  0
  161  0  0   2   2   2  0  0
  162  0  0   0   0   0  1  0
  163  0 81   0   0   0  0  0
  164  0  0   1   1   1  0  0
  165  0 82   0   0   0  0  0
  166  0  0   1   1   1  0  0
  167  0 83   0   0   0  0  0
  168  0  0   1   1   1  0  0
  169  0 84   0   0   0  0  0
  170  0  0   1   1   1  0  0
  171  0 85   0   0   0  0  0
  172  0  0   1   1   1  0  0
  173  0 86   0   0   0  0  0
  174  0  0   1   1   1  0  0
  175  0 87   0   0   0  0  0
  176  0  0   1   1   1  0  0
  177  0 88   0   0   0  0  0
  178  0  0   1   1   1  0  0
  179  0 89   0   0   0  0  0
  180  0  0   1   1   1  0  0
  181  0 90   0   0   0  0  0
  182  0  0   1   1   1  0  0
  183  0 91   0   0   0  0  0
  184  0  0   1   1   1  0  0
  185  0 92   0   0   0  0  0
  186  0  0   1   1   1  0  0
  187  0 93   0   0   0  0  0
  188  0  0   1   1   1  0  0
  189  0 94   0   0   0  0  0
  190  0  0   1   1   1  0  0
  191  0 95   0   0   0  0  0
  192  0  0   1   1   1  0  0
  193  0 96   0   0   0  0  0
  194  0  0   1   1   1  0  0
  195  0 97   0   0   0  0  0
  196  0  0   1   1   1  0  0
  197  0 98   0   0   0  0  0
  198  0  0   1   1   1  0  0
  199  0 99   0   0   0  0  0
  200  0  0   1   1   1  0  0
  201  0 100   0   0   0  0  0
  202  0  0   1   1   1  0  0
  203  0 101   0   0   0  0  0
  204  0  0   1   1   1  0  0
  205  0 102   0   0   0  0  0
  206  0  0   1   1   1  0  0
  207  0 103   0   0   0  0  0
  208  0  0   1   1   1  0  0
  209  0 104   0   0   0  0  0
  210  0  0   1   1   1  0  0
  211  0 105   0   0   0  0  0
  212  0  0   1   1   1  0  0
  213  0 106   0   0   0  0  0
  214  0  0   1   1   1  0  0
  215  0 107   0   0   0  0  0
  216  0  0   1   1   1  0  0
  217  0 108   0   0   0  0  0
  218  0  0   1   1   1  0  0
  219  0 109   0   0   0  0  0
  220  0  0   1   1   1  0  0
  221  0 110   0   0   0  0  0
  222  0  0   1   1   1  0  0
  223  0 111   0   0   0  0  0
  224  0  0   1   1   1  0  0
  225  0 112   0   0   0  0  0
  226  0  0   1   1   1  0  0
  227  0 113   0   0   0  0  0
  228  0  0   1   1   1  0  0
  229  0 114   0   0   0  0  0
  230  0  0   1   1   1  0  0
  231  0 115   0   0   0  0  0
  232  0  0   1   1   1  0  0
  233  0 116   0   0   0  0  0
  234  0  0   1   1   1  0  0
  235  0 117   0   0   0  0  0
  236  0  0   1   1   1  0  0
  237  0 118   0   0   0  0  0
  238  0  0   1   1   1  0  0
  239  0 119   0   0   0  0  0
  240  0  0   1   1   1  0  0
  241  0 120   0   0   0  0  0
  242  0  0   1   1   1  0  0
  243  0 121   0   0   0  0  0
  244  0  0   1   1   1  0  0
  245  0 122   0   0   0  0  0
  246  0  0   1   1   1  0  0
  247  0 123   0   0   0  0  0
  248  0  0   1   1   1  0  0
  249  0 124   0   0   0  0  0
  250  0  0   1   1   1  0  0
  251  0 125   0   0   0  0  0
  252  0  0   1   1   1  0  0
  253  0 126   0   0   0  0  0
  254  0  0   1   1   1  0  0
  255  0 127   0   0   0  0  0
  256  0  0   1   1   1  0  0
  257  0 128   0   0   0  0  0
  258  0  0   1   1   1  0  0
  259  0 129   0   0   0  0  0
  260  0  0   1   1   1  0  0
  261  0 130   0   0   0  0  0
  262  0  0   1   1   1  0  0
  263  0 131   0   0   0  0  0
  264  0  0   1   1   1  0  0
  265  0 132   0   0   0  0  0
  266  0  0   1   1   1  0  0
  267  0 133   0   0   0  0  0
  268  0  0   1   1   1  0  0
  269  0 134   0   0   0  0  0
  270  0  0   1   1   1  0  0
  271  0 135   0   0   0  0  0
  272  0  0   1   1   1  0  0
  273  0 136   0   0   0  0  0
  274  0  0   1   1   1  0  0
  275  0 137   0   0   0  0  0
  276  0  0   1   1   1  0  0
  277  0 138   0   0   0  0  0
  278  0  0   1   1   1  0  0
  279  0 139   0   0   0  0  0
  280  0  0   1   1   1  0  0
  281  0 140   0   0   0  0  0
  282  0  0   1   1   1  0  0
  283  0 141   0   0   0  0  0
  284  0  0   1   1   1  0  0
  285  0 142   0   0   0  0  0
  286  0  0   1   1   1  0  0
  287  0 143   0   0   0  0  0
  288  0  0   1   1   1  0  0
[RF]
1      24.5391 1 2 100 -38318.8 0
2      24.5391 1 2 100 -38318.8 1.69718
3      24.5391 1 2 100 -38318.8 3.39435
4      24.5391 1 2 100 -38318.8 5.09153
5      24.5391 1 2 100 -38318.8 0.505519
6      24.5391 1 2 100 -38318.8 2.2027
7      24.5391 1 2 100 -38318.8 3.89987
8      24.5391 1 2 100 -38318.8 5.59705
9      24.5391 1 2 100 -38318.8 1.01104
10      24.5391 1 2 100 -38318.8 2.70821
11      24.5391 1 2 100 -38318.8 4.40539
12      24.5391 1 2 100 -38318.8 6.10257
13      24.5391 1 2 100 -38318.8 1.51656
14      24.5391 1 2 100 -38318.8 3.21373
15      24.5391 1 2 100 -38318.8 4.91091
16      24.5391 1 2 100 -38318.8 0.3249
17      24.5391 1 2 100 -38318.8 2.02208
18      24.5391 1 2 100 -38318.8 3.71925
19      24.5391 1 2 100 -38318.8 5.41643
20      24.5391 1 2 100 -38318.8 0.830419
21      24.5391 1 2 100 -38318.8 2.52759
22      24.5391 1 2 100 -38318.8 4.22477
23      24.5391 1 2 100 -38318.8 5.92195
24      24.5391 1 2 100 -38318.8 1.33594
25      24.5391 1 2 100 -38318.8 3.03311
26      24.5391 1 2 100 -38318.8 4.73029
27      24.5391 1 2 100 -38318.8 0.144281
28      24.5391 1 2 100 -38318.8 1.84146
29      24.5391 1 2 100 -38318.8 3.53863
30      24.5391 1 2 100 -38318.8 5.23581
31      24.5391 1 2 100 -38318.8 0.649799
32      24.5391 1 2 100 -38318.8 2.34698
33      24.5391 1 2 100 -38318.8 4.04415
34      24.5391 1 2 100 -38318.8 5.74133
35      24.5391 1 2 100 -38318.8 1.15532
36      24.5391 1 2 100 -38318.8 2.85249
37      24.5391 1 2 100 -38318.8 4.54967
38      24.5391 1 2 100 -38318.8 6.24685
39      24.5391 1 2 100 -38318.8 1.66084
40      24.5391 1 2 100 -38318.8 3.35801
41      24.5391 1 2 100 -38318.8 5.05519
42      24.5391 1 2 100 -38318.8 0.46918
43      24.5391 1 2 100 -38318.8 2.16636
44      24.5391 1 2 100 -38318.8 3.86353
45      24.5391 1 2 100 -38318.8 5.56071
46      24.5391 1 2 100 -38318.8 0.974699
47      24.5391 1 2 100 -38318.8 2.67188
48      24.5391 1 2 100 -38318.8 4.36905
49      24.5391 1 2 100 -38318.8 6.06623
50      24.5391 1 2 100 -38318.8 1.48022
51      24.5391 1 2 100 -38318.8 3.17739
52      24.5391 1 2 100 -38318.8 4.87457
53      24.5391 1 2 100 -38318.8 0.288561
54      24.5391 1 2 100 -38318.8 1.98574
55      24.5391 1 2 100 -38318.8 3.68291
56      24.5391 1 2 100 -38318.8 5.38009
57      24.5391 1 2 100 -38318.8 0.79408
58      24.5391 1 2 100 -38318.8 2.49126
59      24.5391 1 2 100 -38318.8 4.18843
60      24.5391 1 2 100 -38318.8 5.88561
61      24.5391 1 2 100 -38318.8 1.2996
62      24.5391 1 2 100 -38318.8 2.99678
63      24.5391 1 2 100 -38318.8 4.69395
64      24.5391 1 2 100 -38318.8 0.107942
65      24.5391 1 2 100 -38318.8 1.80512
66      24.5391 1 2 100 -38318.8 3.50229
67      24.5391 1 2 100 -38318.8 5.19947
68      24.5391 1 2 100 -38318.8 0.613461
69      24.5391 1 2 100 -38318.8 2.31064
70      24.5391 1 2 100 -38318.8 4.00781
71      24.5391 1 2 100 -38318.8 5.70499
72      24.5391 1 2 100 -38318.8 1.11898
73      24.5391 1 2 100 -38318.8 2.81616
74      24.5391 1 2 100 -38318.8 4.51333
75      24.5391 1 2 100 -38318.8 6.21051
76      24.5391 1 2 100 -38318.8 1.6245
77      24.5391 1 2 100 -38318.8 3.32167
78      24.5391 1 2 100 -38318.8 5.01885
79      24.5391 1 2 100 -38318.8 0.432842
80      24.5391 1 2 100 -38318.8 2.13002
81      24.5391 1 2 100 -510.917 0
82      24.5391 1 2 100 -510.917 3.37366
83      24.5391 1 2 100 -510.917 0.464137
84      24.5391 1 2 100 -510.917 3.8378
85      24.5391 1 2 100 -510.917 0.928274
86      24.5391 1 2 100 -510.917 4.30194
87      24.5391 1 2 100 -510.917 1.39241
88      24.5391 1 2 100 -510.917 4.76607
89      24.5391 1 2 100 -510.917 1.85655
90      24.5391 1 2 100 -510.917 5.23021
91      24.5391 1 2 100 -510.917 2.32069
92      24.5391 1 2 100 -510.917 5.69435
93      24.5391 1 2 100 -510.917 2.78482
94      24.5391 1 2 100 -510.917 6.15848
95      24.5391 1 2 100 -510.917 3.24896
96      24.5391 1 2 100 -510.917 0.339435
97      24.5391 1 2 100 -510.917 3.7131
98      24.5391 1 2 100 -510.917 0.803572
99      24.5391 1 2 100 -510.917 4.17723
100      24.5391 1 2 100 -510.917 1.26771
101      24.5391 1 2 100 -510.917 4.64137
102      24.5391 1 2 100 -510.917 1.73185
103      24.5391 1 2 100 -510.917 5.10551
104      24.5391 1 2 100 -510.917 2.19598
105      24.5391 1 2 100 -510.917 5.56964
106      24.5391 1 2 100 -510.917 2.66012
107      24.5391 1 2 100 -510.917 6.03378
108      24.5391 1 2 100 -510.917 3.12426
109      24.5391 1 2 100 -510.917 0.214733
110      24.5391 1 2 100 -510.917 3.58839
111      24.5391 1 2 100 -510.917 0.67887
112      24.5391 1 2 100 -510.917 4.05253
113      24.5391 1 2 100 -510.917 1.14301
114      24.5391 1 2 100 -510.917 4.51667
115      24.5391 1 2 100 -510.917 1.60714
116      24.5391 1 2 100 -510.917 4.98081
117      24.5391 1 2 100 -510.917 2.07128
118      24.5391 1 2 100 -510.917 5.44494
119      24.5391 1 2 100 -510.917 2.53542
120      24.5391 1 2 100 -510.917 5.90908
121      24.5391 1 2 100 -510.917 2.99956
122      24.5391 1 2 100 -510.917 0.0900315
123      24.5391 1 2 100 -510.917 3.46369
124      24.5391 1 2 100 -510.917 0.554169
125      24.5391 1 2 100 -510.917 3.92783
126      24.5391 1 2 100 -510.917 1.01831
127      24.5391 1 2 100 -510.917 4.39197
128      24.5391 1 2 100 -510.917 1.48244
129      24.5391 1 2 100 -510.917 4.8561
130      24.5391 1 2 100 -510.917 1.94658
131      24.5391 1 2 100 -510.917 5.32024
132      24.5391 1 2 100 -510.917 2.41072
133      24.5391 1 2 100 -510.917 5.78438
134      24.5391 1 2 100 -510.917 2.87485
135      24.5391 1 2 100 -510.917 6.24852
136      24.5391 1 2 100 -510.917 3.33899
137      24.5391 1 2 100 -510.917 0.429467
138      24.5391 1 2 100 -510.917 3.80313
139      24.5391 1 2 100 -510.917 0.893604
140      24.5391 1 2 100 -510.917 4.26726
141      24.5391 1 2 100 -510.917 1.35774
142      24.5391 1 2 100 -510.917 4.7314
143      24.5391 1 2 100 -510.917 1.82188
144      24.5391 1 2 100 -510.917 5.19554
145      24.5391 1 2 100 -510.917 2.28601
146      24.5391 1 2 100 -510.917 5.65968
147      24.5391 1 2 100 -510.917 2.75015
148      24.5391 1 2 100 -510.917 6.12381
149      24.5391 1 2 100 -510.917 3.21429
150      24.5391 1 2 100 -510.917 0.304765
151      24.5391 1 2 100 -510.917 3.67843
152      24.5391 1 2 100 -510.917 0.768902
153      24.5391 1 2 100 -510.917 4.14256
154      24.5391 1 2 100 -510.917 1.23304
155      24.5391 1 2 100 -510.917 4.6067
156      24.5391 1 2 100 -510.917 1.69718
157      24.5391 1 2 100 -510.917 5.07084
158      24.5391 1 2 100 -510.917 2.16131
159      24.5391 1 2 100 -510.917 5.53497
160      24.5391 1 2 100 -510.917 2.62545
161      24.5391 1 2 100 -504.53 0
162      24.5391 1 2 100 -504.53 4.19543
163      24.5391 1 2 100 -504.53 2.10767
164      24.5391 1 2 100 -504.53 0.0199146
165      24.5391 1 2 100 -504.53 4.21534
166      24.5391 1 2 100 -504.53 2.12759
167      24.5391 1 2 100 -504.53 0.0398291
168      24.5391 1 2 100 -504.53 4.23526
169      24.5391 1 2 100 -504.53 2.1475
170      24.5391 1 2 100 -504.53 0.0597437
171      24.5391 1 2 100 -504.53 4.25517
172      24.5391 1 2 100 -504.53 2.16742
173      24.5391 1 2 100 -504.53 0.0796583
174      24.5391 1 2 100 -504.53 4.27509
175      24.5391 1 2 100 -504.53 2.18733
176      24.5391 1 2 100 -504.53 0.0995728
177      24.5391 1 2 100 -504.53 4.295
178      24.5391 1 2 100 -504.53 2.20724
179      24.5391 1 2 100 -504.53 0.119487
180      24.5391 1 2 100 -504.53 4.31492
181      24.5391 1 2 100 -504.53 2.22716
182      24.5391 1 2 100 -504.53 0.139402
183      24.5391 1 2 100 -504.53 4.33483
184      24.5391 1 2 100 -504.53 2.24707
185      24.5391 1 2 100 -504.53 0.159317
186      24.5391 1 2 100 -504.53 4.35474
187      24.5391 1 2 100 -504.53 2.26699
188      24.5391 1 2 100 -504.53 0.179231
189      24.5391 1 2 100 -504.53 4.37466
190      24.5391 1 2 100 -504.53 2.2869
191      24.5391 1 2 100 -504.53 0.199146
192      24.5391 1 2 100 -504.53 4.39457
193      24.5391 1 2 100 -504.53 2.30682
194      24.5391 1 2 100 -504.53 0.21906
195      24.5391 1 2 100 -504.53 4.41449
196      24.5391 1 2 100 -504.53 2.32673
197      24.5391 1 2 100 -504.53 0.238975
198      24.5391 1 2 100 -504.53 4.4344
199      24.5391 1 2 100 -504.53 2.34665
200      24.5391 1 2 100 -504.53 0.258889
201      24.5391 1 2 100 -504.53 4.45432
202      24.5391 1 2 100 -504.53 2.36656
203      24.5391 1 2 100 -504.53 0.278804
204      24.5391 1 2 100 -504.53 4.47423
205      24.5391 1 2 100 -504.53 2.38648
206      24.5391 1 2 100 -504.53 0.298718
207      24.5391 1 2 100 -504.53 4.49415
208      24.5391 1 2 100 -504.53 2.40639
209      24.5391 1 2 100 -504.53 0.318633
210      24.5391 1 2 100 -504.53 4.51406
211      24.5391 1 2 100 -504.53 2.4263
212      24.5391 1 2 100 -504.53 0.338548
213      24.5391 1 2 100 -504.53 4.53398
214      24.5391 1 2 100 -504.53 2.44622
215      24.5391 1 2 100 -504.53 0.358462
216      24.5391 1 2 100 -504.53 4.55389
217      24.5391 1 2 100 -504.53 2.46613
218      24.5391 1 2 100 -504.53 0.378377
219      24.5391 1 2 100 -504.53 4.57381
220      24.5391 1 2 100 -504.53 2.48605
221      24.5391 1 2 100 -504.53 0.398291
222      24.5391 1 2 100 -504.53 4.59372
223      24.5391 1 2 100 -504.53 2.50596
224      24.5391 1 2 100 -504.53 0.418206
225      24.5391 1 2 100 -504.53 4.61363
226      24.5391 1 2 100 -504.53 2.52588
227      24.5391 1 2 100 -504.53 0.43812
228      24.5391 1 2 100 -504.53 4.63355
229      24.5391 1 2 100 -504.53 2.54579
230      24.5391 1 2 100 -504.53 0.458035
231      24.5391 1 2 100 -504.53 4.65346
232      24.5391 1 2 100 -504.53 2.56571
233      24.5391 1 2 100 -504.53 0.47795
234      24.5391 1 2 100 -504.53 4.67338
235      24.5391 1 2 100 -504.53 2.58562
236      24.5391 1 2 100 -504.53 0.497864
237      24.5391 1 2 100 -504.53 4.69329
238      24.5391 1 2 100 -504.53 2.60554
239      24.5391 1 2 100 -504.53 0.517779
240      24.5391 1 2 100 -504.53 4.71321
241      24.5391 1 2 100 -498.144 0
242      24.5391 1 2 100 -498.144 5.0172
243      24.5391 1 2 100 -498.144 3.75121
244      24.5391 1 2 100 -498.144 2.48522
245      24.5391 1 2 100 -498.144 1.21923
246      24.5391 1 2 100 -498.144 6.23642
247      24.5391 1 2 100 -498.144 4.97043
248      24.5391 1 2 100 -498.144 3.70444
249      24.5391 1 2 100 -498.144 2.43845
250      24.5391 1 2 100 -498.144 1.17246
251      24.5391 1 2 100 -498.144 6.18966
252      24.5391 1 2 100 -498.144 4.92367
253      24.5391 1 2 100 -498.144 3.65768
254      24.5391 1 2 100 -498.144 2.39169
255      24.5391 1 2 100 -498.144 1.1257
256      24.5391 1 2 100 -498.144 6.1429
257      24.5391 1 2 100 -498.144 4.87691
258      24.5391 1 2 100 -498.144 3.61092
259      24.5391 1 2 100 -498.144 2.34493
260      24.5391 1 2 100 -498.144 1.07894
261      24.5391 1 2 100 -498.144 6.09613
262      24.5391 1 2 100 -498.144 4.83014
263      24.5391 1 2 100 -498.144 3.56415
264      24.5391 1 2 100 -498.144 2.29816
265      24.5391 1 2 100 -498.144 1.03217
266      24.5391 1 2 100 -498.144 6.04937
267      24.5391 1 2 100 -498.144 4.78338
268      24.5391 1 2 100 -498.144 3.51739
269      24.5391 1 2 100 -498.144 2.2514
270      24.5391 1 2 100 -498.144 0.985411
271      24.5391 1 2 100 -498.144 6.00261
272      24.5391 1 2 100 -498.144 4.73662
273      24.5391 1 2 100 -498.144 3.47063
274      24.5391 1 2 100 -498.144 2.20464
275      24.5391 1 2 100 -498.144 0.938647
276      24.5391 1 2 100 -498.144 5.95584
277      24.5391 1 2 100 -498.144 4.68985
278      24.5391 1 2 100 -498.144 3.42386
279      24.5391 1 2 100 -498.144 2.15787
280      24.5391 1 2 100 -498.144 0.891884
281      24.5391 1 2 100 -498.144 5.90908
282      24.5391 1 2 100 -498.144 4.64309
283      24.5391 1 2 100 -498.144 3.3771
284      24.5391 1 2 100 -498.144 2.11111
285      24.5391 1 2 100 -498.144 0.845121
286      24.5391 1 2 100 -498.144 5.86232
287      24.5391 1 2 100 -498.144 4.59633
288      24.5391 1 2 100 -498.144 3.33034
289      24.5391 1 2 100 -498.144 2.06435
290      24.5391 1 2 100 -498.144 0.798358
291      24.5391 1 2 100 -498.144 5.81555
292      24.5391 1 2 100 -498.144 4.54956
293      24.5391 1 2 100 -498.144 3.28357
294      24.5391 1 2 100 -498.144 2.01758
295      24.5391 1 2 100 -498.144 0.751595
296      24.5391 1 2 100 -498.144 5.76879
297      24.5391 1 2 100 -498.144 4.5028
298      24.5391 1 2 100 -498.144 3.23681
299      24.5391 1 2 100 -498.144 1.97082
300      24.5391 1 2 100 -498.144 0.704831
301      24.5391 1 2 100 -498.144 5.72203
302      24.5391 1 2 100 -498.144 4.45604
303      24.5391 1 2 100 -498.144 3.19005
304      24.5391 1 2 100 -498.144 1.92406
305      24.5391 1 2 100 -498.144 0.658068
306      24.5391 1 2 100 -498.144 5.67526
307      24.5391 1 2 100 -498.144 4.40927
308      24.5391 1 2 100 -498.144 3.14328
309      24.5391 1 2 100 -498.144 1.87729
310      24.5391 1 2 100 -498.144 0.611305
311      24.5391 1 2 100 -498.144 5.6285
312      24.5391 1 2 100 -498.144 4.36251
313      24.5391 1 2 100 -498.144 3.09652
314      24.5391 1 2 100 -498.144 1.83053
315      24.5391 1 2 100 -498.144 0.564542
316      24.5391 1 2 100 -498.144 5.58174
317      24.5391 1 2 100 -498.144 4.31575
318      24.5391 1 2 100 -498.144 3.04976
319      24.5391 1 2 100 -498.144 1.78377
320      24.5391 1 2 100 -498.144 0.517779
321      24.5391 1 2 100 -491.757 0
322      24.5391 1 2 100 -491.757 5.83896
323      24.5391 1 2 100 -491.757 5.39474
324      24.5391 1 2 100 -491.757 4.95052
325      24.5391 1 2 100 -491.757 4.5063
326      24.5391 1 2 100 -491.757 4.06207
327      24.5391 1 2 100 -491.757 3.61785
328      24.5391 1 2 100 -491.757 3.17363
329      24.5391 1 2 100 -491.757 2.72941
330      24.5391 1 2 100 -491.757 2.28518
331      24.5391 1 2 100 -491.757 1.84096
332      24.5391 1 2 100 -491.757 1.39674
333      24.5391 1 2 100 -491.757 0.952515
334      24.5391 1 2 100 -491.757 0.508293
335      24.5391 1 2 100 -491.757 0.0640705
336      24.5391 1 2 100 -491.757 5.90303
337      24.5391 1 2 100 -491.757 5.45881
338      24.5391 1 2 100 -491.757 5.01459
339      24.5391 1 2 100 -491.757 4.57037
340      24.5391 1 2 100 -491.757 4.12614
341      24.5391 1 2 100 -491.757 3.68192
342      24.5391 1 2 100 -491.757 3.2377
343      24.5391 1 2 100 -491.757 2.79348
344      24.5391 1 2 100 -491.757 2.34925
345      24.5391 1 2 100 -491.757 1.90503
346      24.5391 1 2 100 -491.757 1.46081
347      24.5391 1 2 100 -491.757 1.01659
348      24.5391 1 2 100 -491.757 0.572364
349      24.5391 1 2 100 -491.757 0.128141
350      24.5391 1 2 100 -491.757 5.9671
351      24.5391 1 2 100 -491.757 5.52288
352      24.5391 1 2 100 -491.757 5.07866
353      24.5391 1 2 100 -491.757 4.63444
354      24.5391 1 2 100 -491.757 4.19021
355      24.5391 1 2 100 -491.757 3.74599
356      24.5391 1 2 100 -491.757 3.30177
357      24.5391 1 2 100 -491.757 2.85755
358      24.5391 1 2 100 -491.757 2.41332
359      24.5391 1 2 100 -491.757 1.9691
360      24.5391 1 2 100 -491.757 1.52488
361      24.5391 1 2 100 -491.757 1.08066
362      24.5391 1 2 100 -491.757 0.636434
363      24.5391 1 2 100 -491.757 0.192212
364      24.5391 1 2 100 -491.757 6.03117
365      24.5391 1 2 100 -491.757 5.58695
366      24.5391 1 2 100 -491.757 5.14273
367      24.5391 1 2 100 -491.757 4.69851
368      24.5391 1 2 100 -491.757 4.25428
369      24.5391 1 2 100 -491.757 3.81006
370      24.5391 1 2 100 -491.757 3.36584
371      24.5391 1 2 100 -491.757 2.92162
372      24.5391 1 2 100 -491.757 2.47739
373      24.5391 1 2 100 -491.757 2.03317
374      24.5391 1 2 100 -491.757 1.58895
375      24.5391 1 2 100 -491.757 1.14473
376      24.5391 1 2 100 -491.757 0.700505
377      24.5391 1 2 100 -491.757 0.256282
378      24.5391 1 2 100 -491.757 6.09524
379      24.5391 1 2 100 -491.757 5.65102
380      24.5391 1 2 100 -491.757 5.2068
381      24.5391 1 2 100 -491.757 4.76258
382      24.5391 1 2 100 -491.757 4.31836
383      24.5391 1 2 100 -491.757 3.87413
384      24.5391 1 2 100 -491.757 3.42991
385      24.5391 1 2 100 -491.757 2.98569
386      24.5391 1 2 100 -491.757 2.54147
387      24.5391 1 2 100 -491.757 2.09724
388      24.5391 1 2 100 -491.757 1.65302
389      24.5391 1 2 100 -491.757 1.2088
390      24.5391 1 2 100 -491.757 0.764575
391      24.5391 1 2 100 -491.757 0.320353
392      24.5391 1 2 100 -491.757 6.15932
393      24.5391 1 2 100 -491.757 5.71509
394      24.5391 1 2 100 -491.757 5.27087
395      24.5391 1 2 100 -491.757 4.82665
396      24.5391 1 2 100 -491.757 4.38243
397      24.5391 1 2 100 -491.757 3.9382
398      24.5391 1 2 100 -491.757 3.49398
399      24.5391 1 2 100 -491.757 3.04976
400      24.5391 1 2 100 -491.757 2.60554
401      24.5391 1 2 100 -485.371 0
402      24.5391 1 2 100 -485.371 0.377545
403      24.5391 1 2 100 -485.371 0.755089
404      24.5391 1 2 100 -485.371 1.13263
405      24.5391 1 2 100 -485.371 1.51018
406      24.5391 1 2 100 -485.371 1.88772
407      24.5391 1 2 100 -485.371 2.26527
408      24.5391 1 2 100 -485.371 2.64281
409      24.5391 1 2 100 -485.371 3.02036
410      24.5391 1 2 100 -485.371 3.3979
411      24.5391 1 2 100 -485.371 3.77545
412      24.5391 1 2 100 -485.371 4.15299
413      24.5391 1 2 100 -485.371 4.53054
414      24.5391 1 2 100 -485.371 4.90808
415      24.5391 1 2 100 -485.371 5.28563
416      24.5391 1 2 100 -485.371 5.66317
417      24.5391 1 2 100 -485.371 6.04072
418      24.5391 1 2 100 -485.371 0.135075
419      24.5391 1 2 100 -485.371 0.51262
420      24.5391 1 2 100 -485.371 0.890165
421      24.5391 1 2 100 -485.371 1.26771
422      24.5391 1 2 100 -485.371 1.64525
423      24.5391 1 2 100 -485.371 2.0228
424      24.5391 1 2 100 -485.371 2.40034
425      24.5391 1 2 100 -485.371 2.77789
426      24.5391 1 2 100 -485.371 3.15543
427      24.5391 1 2 100 -485.371 3.53298
428      24.5391 1 2 100 -485.371 3.91052
429      24.5391 1 2 100 -485.371 4.28807
430      24.5391 1 2 100 -485.371 4.66561
431      24.5391 1 2 100 -485.371 5.04316
432      24.5391 1 2 100 -485.371 5.4207
433      24.5391 1 2 100 -485.371 5.79825
434      24.5391 1 2 100 -485.371 6.17579
435      24.5391 1 2 100 -485.371 0.27015
436      24.5391 1 2 100 -485.371 0.647695
437      24.5391 1 2 100 -485.371 1.02524
438      24.5391 1 2 100 -485.371 1.40278
439      24.5391 1 2 100 -485.371 1.78033
440      24.5391 1 2 100 -485.371 2.15787
441      24.5391 1 2 100 -485.371 2.53542
442      24.5391 1 2 100 -485.371 2.91296
443      24.5391 1 2 100 -485.371 3.29051
444      24.5391 1 2 100 -485.371 3.66805
445      24.5391 1 2 100 -485.371 4.0456
446      24.5391 1 2 100 -485.371 4.42314
447      24.5391 1 2 100 -485.371 4.80069
448      24.5391 1 2 100 -485.371 5.17823
449      24.5391 1 2 100 -485.371 5.55578
450      24.5391 1 2 100 -485.371 5.93332
451      24.5391 1 2 100 -485.371 0.0276806
452      24.5391 1 2 100 -485.371 0.405225
453      24.5391 1 2 100 -485.371 0.78277
454      24.5391 1 2 100 -485.371 1.16031
455      24.5391 1 2 100 -485.371 1.53786
456      24.5391 1 2 100 -485.371 1.9154
457      24.5391 1 2 100 -485.371 2.29295
458      24.5391 1 2 100 -485.371 2.67049
459      24.5391 1 2 100 -485.371 3.04804
460      24.5391 1 2 100 -485.371 3.42558
461      24.5391 1 2 100 -485.371 3.80313
462      24.5391 1 2 100 -485.371 4.18067
463      24.5391 1 2 100 -485.371 4.55822
464      24.5391 1 2 100 -485.371 4.93576
465      24.5391 1 2 100 -485.371 5.31331
466      24.5391 1 2 100 -485.371 5.69085
467      24.5391 1 2 100 -485.371 6.0684
468      24.5391 1 2 100 -485.371 0.162756
469      24.5391 1 2 100 -485.371 0.5403
470      24.5391 1 2 100 -485.371 0.917845
471      24.5391 1 2 100 -485.371 1.29539
472      24.5391 1 2 100 -485.371 1.67293
473      24.5391 1 2 100 -485.371 2.05048
474      24.5391 1 2 100 -485.371 2.42802
475      24.5391 1 2 100 -485.371 2.80557
476      24.5391 1 2 100 -485.371 3.18311
477      24.5391 1 2 100 -485.371 3.56066
478      24.5391 1 2 100 -485.371 3.9382
479      24.5391 1 2 100 -485.371 4.31575
480      24.5391 1 2 100 -485.371 4.69329
