# Pulseq sequence file
# Created by MATLAB mr toolbox

# Created for Pulseq-CEST
# https://pulseq-cest.github.io/
# Created by: Kai Herz
# Created at: 30-Mar-2023 14:00:36

[VERSION]
major 1
minor 3
revision 1

[DEFINITIONS]
B0 2.89500052 
B1pa 1.78 
B1rms 1.99620497 
DCsat 0.909090909 
FREQ 123.2587 
M0_offset -300 
Trec 3.5 
Trec_M0 3.5 
Tsat 1.975 
n_pulses 36 
num_meas 162 
offsets_ppm -300 -4 -3.95 -3.9 -3.85 -3.8 -3.75 -3.7 -3.65 -3.6 -3.55 -3.5 -3.45 -3.4 -3.35 -3.3 -3.25 -3.2 -3.15 -3.1 -3.05 -3 -2.95 -2.9 -2.85 -2.8 -2.75 -2.7 -2.65 -2.6 -2.55 -2.5 -2.45 -2.4 -2.35 -2.3 -2.25 -2.2 -2.15 -2.1 -2.05 -2 -1.95 -1.9 -1.85 -1.8 -1.75 -1.7 -1.65 -1.6 -1.55 -1.5 -1.45 -1.4 -1.35 -1.3 -1.25 -1.2 -1.15 -1.1 -1.05 -1 -0.95 -0.9 -0.85 -0.8 -0.75 -0.7 -0.65 -0.6 -0.55 -0.5 -0.45 -0.4 -0.35 -0.3 -0.25 -0.2 -0.15 -0.1 -0.05 0 0.05 0.1 0.15 0.2 0.25 0.3 0.35 0.4 0.45 0.5 0.55 0.6 0.65 0.7 0.75 0.8 0.85 0.9 0.95 1 1.05 1.1 1.15 1.2 1.25 1.3 1.35 1.4 1.45 1.5 1.55 1.6 1.65 1.7 1.75 1.8 1.85 1.9 1.95 2 2.05 2.1 2.15 2.2 2.25 2.3 2.35 2.4 2.45 2.5 2.55 2.6 2.65 2.7 2.75 2.8 2.85 2.9 2.95 3 3.05 3.1 3.15 3.2 3.25 3.3 3.35 3.4 3.45 3.5 3.55 3.6 3.65 3.7 3.75 3.8 3.85 3.9 3.95 4 
seq_id_string  
spoiling 1 
td 0.005 
tp 0.05 

# Format of blocks:
#  #  D RF  GX  GY  GZ ADC EXT
[BLOCKS]
    1  1  0   0   0   0  0  0
    2  0  1   0   0   0  0  0
    3  2  0   0   0   0  0  0
    4  0  2   0   0   0  0  0
    5  2  0   0   0   0  0  0
    6  0  3   0   0   0  0  0
    7  2  0   0   0   0  0  0
    8  0  4   0   0   0  0  0
    9  2  0   0   0   0  0  0
   10  0  5   0   0   0  0  0
   11  2  0   0   0   0  0  0
   12  0  6   0   0   0  0  0
   13  2  0   0   0   0  0  0
   14  0  7   0   0   0  0  0
   15  2  0   0   0   0  0  0
   16  0  8   0   0   0  0  0
   17  2  0   0   0   0  0  0
   18  0  9   0   0   0  0  0
   19  2  0   0   0   0  0  0
   20  0  5   0   0   0  0  0
   21  2  0   0   0   0  0  0
   22  0 10   0   0   0  0  0
   23  2  0   0   0   0  0  0
   24  0 11   0   0   0  0  0
   25  2  0   0   0   0  0  0
   26  0 12   0   0   0  0  0
   27  2  0   0   0   0  0  0
   28  0 13   0   0   0  0  0
   29  2  0   0   0   0  0  0
   30  0 14   0   0   0  0  0
   31  2  0   0   0   0  0  0
   32  0 15   0   0   0  0  0
   33  2  0   0   0   0  0  0
   34  0 16   0   0   0  0  0
   35  2  0   0   0   0  0  0
   36  0 12   0   0   0  0  0
   37  2  0   0   0   0  0  0
   38  0 17   0   0   0  0  0
   39  2  0   0   0   0  0  0
   40  0  4   0   0   0  0  0
   41  2  0   0   0   0  0  0
   42  0 18   0   0   0  0  0
   43  2  0   0   0   0  0  0
   44  0 19   0   0   0  0  0
   45  2  0   0   0   0  0  0
   46  0  8   0   0   0  0  0
   47  2  0   0   0   0  0  0
   48  0 20   0   0   0  0  0
   49  2  0   0   0   0  0  0
   50  0  9   0   0   0  0  0
   51  2  0   0   0   0  0  0
   52  0 18   0   0   0  0  0
   53  2  0   0   0   0  0  0
   54  0 21   0   0   0  0  0
   55  2  0   0   0   0  0  0
   56  0  3   0   0   0  0  0
   57  2  0   0   0   0  0  0
   58  0 22   0   0   0  0  0
   59  2  0   0   0   0  0  0
   60  0 13   0   0   0  0  0
   61  2  0   0   0   0  0  0
   62  0 15   0   0   0  0  0
   63  2  0   0   0   0  0  0
   64  0 23   0   0   0  0  0
   65  2  0   0   0   0  0  0
   66  0  1   0   0   0  0  0
   67  2  0   0   0   0  0  0
   68  0 22   0   0   0  0  0
   69  2  0   0   0   0  0  0
   70  0 17   0   0   0  0  0
   71  2  0   0   0   0  0  0
   72  0 10   0   0   0  0  0
   73  0  0   1   1   1  0  0
   74  0  0   0   0   0  1  0
   75  1  0   0   0   0  0  0
   76  0 24   0   0   0  0  0
   77  2  0   0   0   0  0  0
   78  0 25   0   0   0  0  0
   79  2  0   0   0   0  0  0
   80  0 26   0   0   0  0  0
   81  2  0   0   0   0  0  0
   82  0 27   0   0   0  0  0
   83  2  0   0   0   0  0  0
   84  0 28   0   0   0  0  0
   85  2  0   0   0   0  0  0
   86  0 29   0   0   0  0  0
   87  2  0   0   0   0  0  0
   88  0 30   0   0   0  0  0
   89  2  0   0   0   0  0  0
   90  0 31   0   0   0  0  0
   91  2  0   0   0   0  0  0
   92  0 32   0   0   0  0  0
   93  2  0   0   0   0  0  0
   94  0 28   0   0   0  0  0
   95  2  0   0   0   0  0  0
   96  0 33   0   0   0  0  0
   97  2  0   0   0   0  0  0
   98  0 34   0   0   0  0  0
   99  2  0   0   0   0  0  0
  100  0 35   0   0   0  0  0
  101  2  0   0   0   0  0  0
  102  0 36   0   0   0  0  0
  103  2  0   0   0   0  0  0
  104  0 37   0   0   0  0  0
  105  2  0   0   0   0  0  0
  106  0 38   0   0   0  0  0
  107  2  0   0   0   0  0  0
  108  0 39   0   0   0  0  0
  109  2  0   0   0   0  0  0
  110  0 35   0   0   0  0  0
  111  2  0   0   0   0  0  0
  112  0 40   0   0   0  0  0
  113  2  0   0   0   0  0  0
  114  0 27   0   0   0  0  0
  115  2  0   0   0   0  0  0
  116  0 41   0   0   0  0  0
  117  2  0   0   0   0  0  0
  118  0 42   0   0   0  0  0
  119  2  0   0   0   0  0  0
  120  0 31   0   0   0  0  0
  121  2  0   0   0   0  0  0
  122  0 43   0   0   0  0  0
  123  2  0   0   0   0  0  0
  124  0 32   0   0   0  0  0
  125  2  0   0   0   0  0  0
  126  0 41   0   0   0  0  0
  127  2  0   0   0   0  0  0
  128  0 44   0   0   0  0  0
  129  2  0   0   0   0  0  0
  130  0 26   0   0   0  0  0
  131  2  0   0   0   0  0  0
  132  0 45   0   0   0  0  0
  133  2  0   0   0   0  0  0
  134  0 36   0   0   0  0  0
  135  2  0   0   0   0  0  0
  136  0 38   0   0   0  0  0
  137  2  0   0   0   0  0  0
  138  0 46   0   0   0  0  0
  139  2  0   0   0   0  0  0
  140  0 24   0   0   0  0  0
  141  2  0   0   0   0  0  0
  142  0 45   0   0   0  0  0
  143  2  0   0   0   0  0  0
  144  0 40   0   0   0  0  0
  145  2  0   0   0   0  0  0
  146  0 33   0   0   0  0  0
  147  0  0   1   1   1  0  0
  148  0  0   0   0   0  1  0
  149  1  0   0   0   0  0  0
  150  0 47   0   0   0  0  0
  151  2  0   0   0   0  0  0
  152  0 48   0   0   0  0  0
  153  2  0   0   0   0  0  0
  154  0 49   0   0   0  0  0
  155  2  0   0   0   0  0  0
  156  0 50   0   0   0  0  0
  157  2  0   0   0   0  0  0
  158  0 51   0   0   0  0  0
  159  2  0   0   0   0  0  0
  160  0 52   0   0   0  0  0
  161  2  0   0   0   0  0  0
  162  0 53   0   0   0  0  0
  163  2  0   0   0   0  0  0
  164  0 54   0   0   0  0  0
  165  2  0   0   0   0  0  0
  166  0 55   0   0   0  0  0
  167  2  0   0   0   0  0  0
  168  0 51   0   0   0  0  0
  169  2  0   0   0   0  0  0
  170  0 56   0   0   0  0  0
  171  2  0   0   0   0  0  0
  172  0 57   0   0   0  0  0
  173  2  0   0   0   0  0  0
  174  0 58   0   0   0  0  0
  175  2  0   0   0   0  0  0
  176  0 59   0   0   0  0  0
  177  2  0   0   0   0  0  0
  178  0 60   0   0   0  0  0
  179  2  0   0   0   0  0  0
  180  0 61   0   0   0  0  0
  181  2  0   0   0   0  0  0
  182  0 62   0   0   0  0  0
  183  2  0   0   0   0  0  0
  184  0 58   0   0   0  0  0
  185  2  0   0   0   0  0  0
  186  0 63   0   0   0  0  0
  187  2  0   0   0   0  0  0
  188  0 50   0   0   0  0  0
  189  2  0   0   0   0  0  0
  190  0 64   0   0   0  0  0
  191  2  0   0   0   0  0  0
  192  0 65   0   0   0  0  0
  193  2  0   0   0   0  0  0
  194  0 54   0   0   0  0  0
  195  2  0   0   0   0  0  0
  196  0 66   0   0   0  0  0
  197  2  0   0   0   0  0  0
  198  0 55   0   0   0  0  0
  199  2  0   0   0   0  0  0
  200  0 64   0   0   0  0  0
  201  2  0   0   0   0  0  0
  202  0 67   0   0   0  0  0
  203  2  0   0   0   0  0  0
  204  0 49   0   0   0  0  0
  205  2  0   0   0   0  0  0
  206  0 68   0   0   0  0  0
  207  2  0   0   0   0  0  0
  208  0 59   0   0   0  0  0
  209  2  0   0   0   0  0  0
  210  0 61   0   0   0  0  0
  211  2  0   0   0   0  0  0
  212  0 69   0   0   0  0  0
  213  2  0   0   0   0  0  0
  214  0 47   0   0   0  0  0
  215  2  0   0   0   0  0  0
  216  0 68   0   0   0  0  0
  217  2  0   0   0   0  0  0
  218  0 63   0   0   0  0  0
  219  2  0   0   0   0  0  0
  220  0 56   0   0   0  0  0
  221  0  0   1   1   1  0  0
  222  0  0   0   0   0  1  0
  223  1  0   0   0   0  0  0
  224  0 70   0   0   0  0  0
  225  2  0   0   0   0  0  0
  226  0 71   0   0   0  0  0
  227  2  0   0   0   0  0  0
  228  0 72   0   0   0  0  0
  229  2  0   0   0   0  0  0
  230  0 73   0   0   0  0  0
  231  2  0   0   0   0  0  0
  232  0 74   0   0   0  0  0
  233  2  0   0   0   0  0  0
  234  0 75   0   0   0  0  0
  235  2  0   0   0   0  0  0
  236  0 76   0   0   0  0  0
  237  2  0   0   0   0  0  0
  238  0 77   0   0   0  0  0
  239  2  0   0   0   0  0  0
  240  0 78   0   0   0  0  0
  241  2  0   0   0   0  0  0
  242  0 74   0   0   0  0  0
  243  2  0   0   0   0  0  0
  244  0 79   0   0   0  0  0
  245  2  0   0   0   0  0  0
  246  0 80   0   0   0  0  0
  247  2  0   0   0   0  0  0
  248  0 81   0   0   0  0  0
  249  2  0   0   0   0  0  0
  250  0 82   0   0   0  0  0
  251  2  0   0   0   0  0  0
  252  0 83   0   0   0  0  0
  253  2  0   0   0   0  0  0
  254  0 84   0   0   0  0  0
  255  2  0   0   0   0  0  0
  256  0 85   0   0   0  0  0
  257  2  0   0   0   0  0  0
  258  0 81   0   0   0  0  0
  259  2  0   0   0   0  0  0
  260  0 86   0   0   0  0  0
  261  2  0   0   0   0  0  0
  262  0 73   0   0   0  0  0
  263  2  0   0   0   0  0  0
  264  0 87   0   0   0  0  0
  265  2  0   0   0   0  0  0
  266  0 88   0   0   0  0  0
  267  2  0   0   0   0  0  0
  268  0 77   0   0   0  0  0
  269  2  0   0   0   0  0  0
  270  0 89   0   0   0  0  0
  271  2  0   0   0   0  0  0
  272  0 78   0   0   0  0  0
  273  2  0   0   0   0  0  0
  274  0 87   0   0   0  0  0
  275  2  0   0   0   0  0  0
  276  0 90   0   0   0  0  0
  277  2  0   0   0   0  0  0
  278  0 72   0   0   0  0  0
  279  2  0   0   0   0  0  0
  280  0 91   0   0   0  0  0
  281  2  0   0   0   0  0  0
  282  0 82   0   0   0  0  0
  283  2  0   0   0   0  0  0
  284  0 84   0   0   0  0  0
  285  2  0   0   0   0  0  0
  286  0 92   0   0   0  0  0
  287  2  0   0   0   0  0  0
  288  0 70   0   0   0  0  0
  289  2  0   0   0   0  0  0
  290  0 91   0   0   0  0  0
[RF]
1      141.677 1 2 100 -36977.6 0
2      141.677 1 2 100 -36977.6 2.19911
3      141.677 1 2 100 -36977.6 2.35619
4      141.677 1 2 100 -36977.6 0.471239
5      141.677 1 2 100 -36977.6 2.82743
6      141.677 1 2 100 -36977.6 3.14159
7      141.677 1 2 100 -36977.6 1.41372
8      141.677 1 2 100 -36977.6 3.92699
9      141.677 1 2 100 -36977.6 4.39823
10      141.677 1 2 100 -36977.6 5.49779
11      141.677 1 2 100 -36977.6 6.12611
12      141.677 1 2 100 -36977.6 4.71239
13      141.677 1 2 100 -36977.6 1.25664
14      141.677 1 2 100 -36977.6 2.04204
15      141.677 1 2 100 -36977.6 0.785398
16      141.677 1 2 100 -36977.6 3.76991
17      141.677 1 2 100 -36977.6 3.61283
18      141.677 1 2 100 -36977.6 1.5708
19      141.677 1 2 100 -36977.6 0.628319
20      141.677 1 2 100 -36977.6 5.18363
21      141.677 1 2 100 -36977.6 2.98451
22      141.677 1 2 100 -36977.6 5.96903
23      141.677 1 2 100 -36977.6 4.55531
24      141.677 1 2 100 -493.035 0
25      141.677 1 2 100 -493.035 2.19911
26      141.677 1 2 100 -493.035 2.35619
27      141.677 1 2 100 -493.035 0.471239
28      141.677 1 2 100 -493.035 2.82743
29      141.677 1 2 100 -493.035 3.14159
30      141.677 1 2 100 -493.035 1.41372
31      141.677 1 2 100 -493.035 3.92699
32      141.677 1 2 100 -493.035 4.39823
33      141.677 1 2 100 -493.035 5.49779
34      141.677 1 2 100 -493.035 6.12611
35      141.677 1 2 100 -493.035 4.71239
36      141.677 1 2 100 -493.035 1.25664
37      141.677 1 2 100 -493.035 2.04204
38      141.677 1 2 100 -493.035 0.785398
39      141.677 1 2 100 -493.035 3.76991
40      141.677 1 2 100 -493.035 3.61283
41      141.677 1 2 100 -493.035 1.5708
42      141.677 1 2 100 -493.035 0.628319
43      141.677 1 2 100 -493.035 5.18363
44      141.677 1 2 100 -493.035 2.98451
45      141.677 1 2 100 -493.035 5.96903
46      141.677 1 2 100 -493.035 4.55531
47      141.677 1 2 100 -486.872 0
48      141.677 1 2 100 -486.872 2.19911
49      141.677 1 2 100 -486.872 2.35619
50      141.677 1 2 100 -486.872 0.471239
51      141.677 1 2 100 -486.872 2.82743
52      141.677 1 2 100 -486.872 3.14159
53      141.677 1 2 100 -486.872 1.41372
54      141.677 1 2 100 -486.872 3.92699
55      141.677 1 2 100 -486.872 4.39823
56      141.677 1 2 100 -486.872 5.49779
57      141.677 1 2 100 -486.872 6.12611
58      141.677 1 2 100 -486.872 4.71239
59      141.677 1 2 100 -486.872 1.25664
60      141.677 1 2 100 -486.872 2.04204
61      141.677 1 2 100 -486.872 0.785398
62      141.677 1 2 100 -486.872 3.76991
63      141.677 1 2 100 -486.872 3.61283
64      141.677 1 2 100 -486.872 1.5708
65      141.677 1 2 100 -486.872 0.628319
66      141.677 1 2 100 -486.872 5.18363
67      141.677 1 2 100 -486.872 2.98451
68      141.677 1 2 100 -486.872 5.96903
69      141.677 1 2 100 -486.872 4.55531
70      141.677 1 2 100 -480.709 0
71      141.677 1 2 100 -480.709 2.19911
72      141.677 1 2 100 -480.709 2.35619
73      141.677 1 2 100 -480.709 0.471239
74      141.677 1 2 100 -480.709 2.82743
75      141.677 1 2 100 -480.709 3.14159
76      141.677 1 2 100 -480.709 1.41372
77      141.677 1 2 100 -480.709 3.92699
78      141.677 1 2 100 -480.709 4.39823
79      141.677 1 2 100 -480.709 5.49779
80      141.677 1 2 100 -480.709 6.12611
81      141.677 1 2 100 -480.709 4.71239
82      141.677 1 2 100 -480.709 1.25664
83      141.677 1 2 100 -480.709 2.04204
84      141.677 1 2 100 -480.709 0.785398
85      141.677 1 2 100 -480.709 3.76991
86      141.677 1 2 100 -480.709 3.61283
87      141.677 1 2 100 -480.709 1.5708
88      141.677 1 2 100 -480.709 0.628319
89      141.677 1 2 100 -480.709 5.18363
90      141.677 1 2 100 -480.709 2.98451
91      141.677 1 2 100 -480.709 5.96903
92      141.677 1 2 100 -480.709 4.55531
93      141.677 1 2 100 -474.546 0
94      141.677 1 2 100 -474.546 2.19911
95      141.677 1 2 100 -474.546 2.35619
96      141.677 1 2 100 -474.546 0.471239
97      141.677 1 2 100 -474.546 2.82743
98      141.677 1 2 100 -474.546 3.14159
99      141.677 1 2 100 -474.546 1.41372
100      141.677 1 2 100 -474.546 3.92699
101      141.677 1 2 100 -474.546 4.39823
102      141.677 1 2 100 -474.546 5.49779
103      141.677 1 2 100 -474.546 6.12611
104      141.677 1 2 100 -474.546 4.71239
105      141.677 1 2 100 -474.546 1.25664
106      141.677 1 2 100 -474.546 2.04204
107      141.677 1 2 100 -474.546 0.785398
108      141.677 1 2 100 -474.546 3.76991
109      141.677 1 2 100 -474.546 3.61283
110      141.677 1 2 100 -474.546 1.5708
111      141.677 1 2 100 -474.546 0.628319
112      141.677 1 2 100 -474.546 5.18363
113      141.677 1 2 100 -474.546 2.98451
114      141.677 1 2 100 -474.546 5.96903
115      141.677 1 2 100 -474.546 4.55531
116      141.677 1 2 100 -468.383 0
117      141.677 1 2 100 -468.383 2.19911
118      141.677 1 2 100 -468.383 2.35619
119      141.677 1 2 100 -468.383 0.471239
120      141.677 1 2 100 -468.383 2.82743
121      141.677 1 2 100 -468.383 3.14159
122      141.677 1 2 100 -468.383 1.41372
123      141.677 1 2 100 -468.383 3.92699
124      141.677 1 2 100 -468.383 4.39823
125      141.677 1 2 100 -468.383 5.49779
126      141.677 1 2 100 -468.383 6.12611
127      141.677 1 2 100 -468.383 4.71239
128      141.677 1 2 100 -468.383 1.25664
129      141.677 1 2 100 -468.383 2.04204
130      141.677 1 2 100 -468.383 0.785398
131      141.677 1 2 100 -468.383 3.76991
132      141.677 1 2 100 -468.383 3.61283
133      141.677 1 2 100 -468.383 1.5708
134      141.677 1 2 100 -468.383 0.628319
135      141.677 1 2 100 -468.383 5.18363
136      141.677 1 2 100 -468.383 2.98451
137      141.677 1 2 100 -468.383 5.96903
138      141.677 1 2 100 -468.383 4.55531
139      141.677 1 2 100 -462.22 0
140      141.677 1 2 100 -462.22 2.19911
141      141.677 1 2 100 -462.22 2.35619
142      141.677 1 2 100 -462.22 0.471239
143      141.677 1 2 100 -462.22 2.82743
144      141.677 1 2 100 -462.22 3.14159
145      141.677 1 2 100 -462.22 1.41372
146      141.677 1 2 100 -462.22 3.92699
147      141.677 1 2 100 -462.22 4.39823
148      141.677 1 2 100 -462.22 5.49779
149      141.677 1 2 100 -462.22 6.12611
150      141.677 1 2 100 -462.22 4.71239
151      141.677 1 2 100 -462.22 1.25664
152      141.677 1 2 100 -462.22 2.04204
153      141.677 1 2 100 -462.22 0.785398
154      141.677 1 2 100 -462.22 3.76991
155      141.677 1 2 100 -462.22 3.61283
156      141.677 1 2 100 -462.22 1.5708
157      141.677 1 2 100 -462.22 0.628319
158      141.677 1 2 100 -462.22 5.18363
159      141.677 1 2 100 -462.22 2.98451
160      141.677 1 2 100 -462.22 5.96903
161      141.677 1 2 100 -462.22 4.55531
162      141.677 1 2 100 -456.057 0
163      141.677 1 2 100 -456.057 2.19911
164      141.677 1 2 100 -456.057 2.35619
165      141.677 1 2 100 -456.057 0.471239
166      141.677 1 2 100 -456.057 2.82743
167      141.677 1 2 100 -456.057 3.14159
168      141.677 1 2 100 -456.057 1.41372
169      141.677 1 2 100 -456.057 3.92699
170      141.677 1 2 100 -456.057 4.39823
171      141.677 1 2 100 -456.057 5.49779
172      141.677 1 2 100 -456.057 6.12611
173      141.677 1 2 100 -456.057 4.71239
174      141.677 1 2 100 -456.057 1.25664
175      141.677 1 2 100 -456.057 2.04204
176      141.677 1 2 100 -456.057 0.785398
177      141.677 1 2 100 -456.057 3.76991
178      141.677 1 2 100 -456.057 3.61283
179      141.677 1 2 100 -456.057 1.5708
180      141.677 1 2 100 -456.057 0.628319
181      141.677 1 2 100 -456.057 5.18363
182      141.677 1 2 100 -456.057 2.98451
183      141.677 1 2 100 -456.057 5.96903
184      141.677 1 2 100 -456.057 4.55531
185      141.677 1 2 100 -449.894 0
186      141.677 1 2 100 -449.894 2.19911
187      141.677 1 2 100 -449.894 2.35619
188      141.677 1 2 100 -449.894 0.471239
189      141.677 1 2 100 -449.894 2.82743
190      141.677 1 2 100 -449.894 3.14159
191      141.677 1 2 100 -449.894 1.41372
192      141.677 1 2 100 -449.894 3.92699
193      141.677 1 2 100 -449.894 4.39823
194      141.677 1 2 100 -449.894 5.49779
195      141.677 1 2 100 -449.894 6.12611
196      141.677 1 2 100 -449.894 4.71239
197      141.677 1 2 100 -449.894 1.25664
198      141.677 1 2 100 -449.894 2.04204
199      141.677 1 2 100 -449.894 0.785398
200      141.677 1 2 100 -449.894 3.76991
201      141.677 1 2 100 -449.894 3.61283
202      141.677 1 2 100 -449.894 1.5708
203      141.677 1 2 100 -449.894 0.628319
204      141.677 1 2 100 -449.894 5.18363
205      141.677 1 2 100 -449.894 2.98451
206      141.677 1 2 100 -449.894 5.96903
207      141.677 1 2 100 -449.894 4.55531
208      141.677 1 2 100 -443.731 0
209      141.677 1 2 100 -443.731 2.19911
210      141.677 1 2 100 -443.731 2.35619
211      141.677 1 2 100 -443.731 0.471239
212      141.677 1 2 100 -443.731 2.82743
213      141.677 1 2 100 -443.731 3.14159
214      141.677 1 2 100 -443.731 1.41372
215      141.677 1 2 100 -443.731 3.92699
216      141.677 1 2 100 -443.731 4.39823
217      141.677 1 2 100 -443.731 5.49779
218      141.677 1 2 100 -443.731 6.12611
219      141.677 1 2 100 -443.731 4.71239
220      141.677 1 2 100 -443.731 1.25664
221      141.677 1 2 100 -443.731 2.04204
222      141.677 1 2 100 -443.731 0.785398
223      141.677 1 2 100 -443.731 3.76991
224      141.677 1 2 100 -443.731 3.61283
225      141.677 1 2 100 -443.731 1.5708
226      141.677 1 2 100 -443.731 0.628319
227      141.677 1 2 100 -443.731 5.18363
228      141.677 1 2 100 -443.731 2.98451
229      141.677 1 2 100 -443.731 5.96903
230      141.677 1 2 100 -443.731 4.55531
231      141.677 1 2 100 -437.568 0
232      141.677 1 2 100 -437.568 2.19911
233      141.677 1 2 100 -437.568 2.35619
234      141.677 1 2 100 -437.568 0.471239
235      141.677 1 2 100 -437.568 2.82743
236      141.677 1 2 100 -437.568 3.14159
237      141.677 1 2 100 -437.568 1.41372
238      141.677 1 2 100 -437.568 3.92699
239      141.677 1 2 100 -437.568 4.39823
240      141.677 1 2 100 -437.568 5.49779
241      141.677 1 2 100 -437.568 6.12611
242      141.677 1 2 100 -437.568 4.71239
243      141.677 1 2 100 -437.568 1.25664
244      141.677 1 2 100 -437.568 2.04204
245      141.677 1 2 100 -437.568 0.785398
246      141.677 1 2 100 -437.568 3.76991
247      141.677 1 2 100 -437.568 3.61283
248      141.677 1 2 100 -437.568 1.5708
249      141.677 1 2 100 -437.568 0.628319
250      141.677 1 2 100 -437.568 5.18363
251      141.677 1 2 100 -437.568 2.98451
252      141.677 1 2 100 -437.568 5.96903
253      141.677 1 2 100 -437.568 4.55531
254      141.677 1 2 100 -431.405 0
255      141.677 1 2 100 -431.405 2.19911
256      141.677 1 2 100 -431.405 2.35619
257      141.677 1 2 100 -431.405 0.471239
258      141.677 1 2 100 -431.405 2.82743
259      141.677 1 2 100 -431.405 3.14159
260      141.677 1 2 100 -431.405 1.41372
261      141.677 1 2 100 -431.405 3.92699
262      141.677 1 2 100 -431.405 4.39823
263      141.677 1 2 100 -431.405 5.49779
264      141.677 1 2 100 -431.405 6.12611
265      141.677 1 2 100 -431.405 4.71239
266      141.677 1 2 100 -431.405 1.25664
267      141.677 1 2 100 -431.405 2.04204
268      141.677 1 2 100 -431.405 0.785398
269      141.677 1 2 100 -431.405 3.76991
270      141.677 1 2 100 -431.405 3.61283
271      141.677 1 2 100 -431.405 1.5708
272      141.677 1 2 100 -431.405 0.628319
273      141.677 1 2 100 -431.405 5.18363
274      141.677 1 2 100 -431.405 2.98451
275      141.677 1 2 100 -431.405 5.96903
276      141.677 1 2 100 -431.405 4.55531
277      141.677 1 2 100 -425.243 0
278      141.677 1 2 100 -425.243 2.19911
279      141.677 1 2 100 -425.243 2.35619
280      141.677 1 2 100 -425.243 0.471239
281      141.677 1 2 100 -425.243 2.82743
282      141.677 1 2 100 -425.243 3.14159
283      141.677 1 2 100 -425.243 1.41372
284      141.677 1 2 100 -425.243 3.92699
285      141.677 1 2 100 -425.243 4.39823
286      141.677 1 2 100 -425.243 5.49779
287      141.677 1 2 100 -425.243 6.12611
288      141.677 1 2 100 -425.243 4.71239
289      141.677 1 2 100 -425.243 1.25664
290      141.677 1 2 100 -425.243 2.04204
291      141.677 1 2 100 -425.243 0.785398
292      141.677 1 2 100 -425.243 3.76991
293      141.677 1 2 100 -425.243 3.61283
294      141.677 1 2 100 -425.243 1.5708
295      141.677 1 2 100 -425.243 0.628319
296      141.677 1 2 100 -425.243 5.18363
297      141.677 1 2 100 -425.243 2.98451
298      141.677 1 2 100 -425.243 5.96903
299      141.677 1 2 100 -425.243 4.55531
300      141.677 1 2 100 -419.08 0
301      141.677 1 2 100 -419.08 2.19911
302      141.677 1 2 100 -419.08 2.35619
303      141.677 1 2 100 -419.08 0.471239
304      141.677 1 2 100 -419.08 2.82743
305      141.677 1 2 100 -419.08 3.14159
306      141.677 1 2 100 -419.08 1.41372
307      141.677 1 2 100 -419.08 3.92699
308      141.677 1 2 100 -419.08 4.39823
309      141.677 1 2 100 -419.08 5.49779
310      141.677 1 2 100 -419.08 6.12611
311      141.677 1 2 100 -419.08 4.71239
312      141.677 1 2 100 -419.08 1.25664
313      141.677 1 2 100 -419.08 2.04204
314      141.677 1 2 100 -419.08 0.785398
315      141.677 1 2 100 -419.08 3.76991
316      141.677 1 2 100 -419.08 3.61283
317      141.677 1 2 100 -419.08 1.5708
318      141.677 1 2 100 -419.08 0.628319
319      141.677 1 2 100 -419.08 5.18363
320      141.677 1 2 100 -419.08 2.98451
321      141.677 1 2 100 -419.08 5.96903
322      141.677 1 2 100 -419.08 4.55531
323      141.677 1 2 100 -412.917 0
324      141.677 1 2 100 -412.917 2.19911
325      141.677 1 2 100 -412.917 2.35619
326      141.677 1 2 100 -412.917 0.471239
327      141.677 1 2 100 -412.917 2.82743
328      141.677 1 2 100 -412.917 3.14159
329      141.677 1 2 100 -412.917 1.41372
330      141.677 1 2 100 -412.917 3.92699
331      141.677 1 2 100 -412.917 4.39823
332      141.677 1 2 100 -412.917 5.49779
333      141.677 1 2 100 -412.917 6.12611
334      141.677 1 2 100 -412.917 4.71239
335      141.677 1 2 100 -412.917 1.25664
336      141.677 1 2 100 -412.917 2.04204
337      141.677 1 2 100 -412.917 0.785398
338      141.677 1 2 100 -412.917 3.76991
339      141.677 1 2 100 -412.917 3.61283
340      141.677 1 2 100 -412.917 1.5708
341      141.677 1 2 100 -412.917 0.628319
342      141.677 1 2 100 -412.917 5.18363
343      141.677 1 2 100 -412.917 2.98451
344      141.677 1 2 100 -412.917 5.96903
345      141.677 1 2 100 -412.917 4.55531
346      141.677 1 2 100 -406.754 0
347      141.677 1 2 100 -406.754 2.19911
348      141.677 1 2 100 -406.754 2.35619
349      141.677 1 2 100 -406.754 0.471239
350      141.677 1 2 100 -406.754 2.82743
351      141.677 1 2 100 -406.754 3.14159
352      141.677 1 2 100 -406.754 1.41372
353      141.677 1 2 100 -406.754 3.92699
354      141.677 1 2 100 -406.754 4.39823
355      141.677 1 2 100 -406.754 5.49779
356      141.677 1 2 100 -406.754 6.12611
357      141.677 1 2 100 -406.754 4.71239
358      141.677 1 2 100 -406.754 1.25664
359      141.677 1 2 100 -406.754 2.04204
360      141.677 1 2 100 -406.754 0.785398
361      141.677 1 2 100 -406.754 3.76991
362      141.677 1 2 100 -406.754 3.61283
363      141.677 1 2 100 -406.754 1.5708
364      141.677 1 2 100 -406.754 0.628319
365      141.677 1 2 100 -406.754 5.18363
366      141.677 1 2 100 -406.754 2.98451
367      141.677 1 2 100 -406.754 5.96903
368      141.677 1 2 100 -406.754 4.55531
369      141.677 1 2 100 -400.591 0
370      141.677 1 2 100 -400.591 2.19911
371      141.677 1 2 100 -400.591 2.35619
372      141.677 1 2 100 -400.591 0.471239
373      141.677 1 2 100 -400.591 2.82743
374      141.677 1 2 100 -400.591 3.14159
375      141.677 1 2 100 -400.591 1.41372
376      141.677 1 2 100 -400.591 3.92699
377      141.677 1 2 100 -400.591 4.39823
378      141.677 1 2 100 -400.591 5.49779
379      141.677 1 2 100 -400.591 6.12611
380      141.677 1 2 100 -400.591 4.71239
381      141.677 1 2 100 -400.591 1.25664
382      141.677 1 2 100 -400.591 2.04204
383      141.677 1 2 100 -400.591 0.785398
384      141.677 1 2 100 -400.591 3.76991
385      141.677 1 2 100 -400.591 3.61283
386      141.677 1 2 100 -400.591 1.5708
387      141.677 1 2 100 -400.591 0.628319
388      141.677 1 2 100 -400.591 5.18363
389      141.677 1 2 100 -400.591 2.98451
390      141.677 1 2 100 -400.591 5.96903
391      141.677 1 2 100 -400.591 4.55531
392      141.677 1 2 100 -394.428 0
393      141.677 1 2 100 -394.428 2.19911
394      141.677 1 2 100 -394.428 2.35619
395      141.677 1 2 100 -394.428 0.471239
396      141.677 1 2 100 -394.428 2.82743
397      141.677 1 2 100 -394.428 3.14159
398      141.677 1 2 100 -394.428 1.41372
399      141.677 1 2 100 -394.428 3.92699
400      141.677 1 2 100 -394.428 4.39823
401      141.677 1 2 100 -394.428 5.49779
402      141.677 1 2 100 -394.428 6.12611
403      141.677 1 2 100 -394.428 4.71239
404      141.677 1 2 100 -394.428 1.25664
405      141.677 1 2 100 -394.428 2.04204
406      141.677 1 2 100 -394.428 0.785398
407      141.677 1 2 100 -394.428 3.76991
408      141.677 1 2 100 -394.428 3.61283
409      141.677 1 2 100 -394.428 1.5708
410      141.677 1 2 100 -394.428 0.628319
411      141.677 1 2 100 -394.428 5.18363
412      141.677 1 2 100 -394.428 2.98451
413      141.677 1 2 100 -394.428 5.96903
414      141.677 1 2 100 -394.428 4.55531
415      141.677 1 2 100 -388.265 0
416      141.677 1 2 100 -388.265 2.19911
417      141.677 1 2 100 -388.265 2.35619
418      141.677 1 2 100 -388.265 0.471239
419      141.677 1 2 100 -388.265 2.82743
420      141.677 1 2 100 -388.265 3.14159
421      141.677 1 2 100 -388.265 1.41372
422      141.677 1 2 100 -388.265 3.92699
423      141.677 1 2 100 -388.265 4.39823
424      141.677 1 2 100 -388.265 5.49779
425      141.677 1 2 100 -388.265 6.12611
426      141.677 1 2 100 -388.265 4.71239
427      141.677 1 2 100 -388.265 1.25664
428      141.677 1 2 100 -388.265 2.04204
429      141.677 1 2 100 -388.265 0.785398
430      141.677 1 2 100 -388.265 3.76991
431      141.677 1 2 100 -388.265 3.61283
432      141.677 1 2 100 -388.265 1.5708
433      141.677 1 2 100 -388.265 0.628319
434      141.677 1 2 100 -388.265 5.18363
435      141.677 1 2 100 -388.265 2.98451
436      141.677 1 2 100 -388.265 5.96903
437      141.677 1 2 100 -388.265 4.55531
438      141.677 1 2 100 -382.102 0
439      141.677 1 2 100 -382.102 2.19911
440      141.677 1 2 100 -382.102 2.35619
441      141.677 1 2 100 -382.102 0.471239
442      141.677 1 2 100 -382.102 2.82743
443      141.677 1 2 100 -382.102 3.14159
444      141.677 1 2 100 -382.102 1.41372
445      141.677 1 2 100 -382.102 3.92699
446      141.677 1 2 100 -382.102 4.39823
447      141.677 1 2 100 -382.102 5.49779
448      141.677 1 2 100 -382.102 6.12611
449      141.677 1 2 100 -382.102 4.71239
450      141.677 1 2 100 -382.102 1.25664
451      141.677 1 2 100 -382.102 2.04204
452      141.677 1 2 100 -382.102 0.785398
453      141.677 1 2 100 -382.102 3.76991
454      141.677 1 2 100 -382.102 3.61283
455      141.677 1 2 100 -382.102 1.5708
456      141.677 1 2 100 -382.102 0.628319
457      141.677 1 2 100 -382.102 5.18363
458      141.677 1 2 100 -382.102 2.98451
459      141.677 1 2 100 -382.102 5.96903
460      141.677 1 2 100 -382.102 4.55531
461      141.677 1 2 100 -375.939 0
462      141.677 1 2 100 -375.939 2.19911
463      141.677 1 2 100 -375.939 2.35619
464      141.677 1 2 100 -375.939 0.471239
465      141.677 1 2 100 -375.939 2.82743
466      141.677 1 2 100 -375.939 3.14159
467      141.677 1 2 100 -375.939 1.41372
468      141.677 1 2 100 -375.939 3.92699
469      141.677 1 2 100 -375.939 4.39823
470      141.677 1 2 100 -375.939 5.49779
471      141.677 1 2 100 -375.939 6.12611
472      141.677 1 2 100 -375.939 4.71239
473      141.677 1 2 100 -375.939 1.25664
474      141.677 1 2 100 -375.939 2.04204
475      141.677 1 2 100 -375.939 0.785398
476      141.677 1 2 100 -375.939 3.76991
477      141.677 1 2 100 -375.939 3.61283
478      141.677 1 2 100 -375.939 1.5708
479      141.677 1 2 100 -375.939 0.628319
480      141.677 1 2 100 -375.939 5.18363
481      141.677 1 2 100 -375.939 2.98451
