# Pulseq sequence file
# Created by MATLAB mr toolbox

# Created for Pulseq-CEST
# https://pulseq-cest.github.io/
# Created by: Kai Herz
# Created at: 28-Nov-2023 16:40:05

[VERSION]
major 1
minor 3
revision 1

[DEFINITIONS]
B0 2.89500052 
B1pa 1.78 
B1rms 1.99620497 
DCsat 0.909090909 
FREQ 123.2587 
M0_offset -300 
Trec 3.5 
Trec_M0 3.5 
Tsat 1.975 
n_pulses 36 
num_meas 34 
offsets_ppm -300 -4 -3.75 -3.5 -3.25 -3 -2.75 -2.5 -2.25 -2 -1.75 -1.5 -1.25 -1 -0.75 -0.5 -0.25 0 0.25 0.5 0.75 1 1.25 1.5 1.75 2 2.25 2.5 2.75 3 3.25 3.5 3.75 4 
seq_id_string  
spoiling 1 
td 0.005 
tp 0.05 

# Format of blocks:
#  #  D RF  GX  GY  GZ ADC EXT
[BLOCKS]
   1  1  0   0   0   0  0  0
   2  0  1   0   0   0  0  0
   3  2  0   0   0   0  0  0
   4  0  2   0   0   0  0  0
   5  2  0   0   0   0  0  0
   6  0  3   0   0   0  0  0
   7  2  0   0   0   0  0  0
   8  0  4   0   0   0  0  0
   9  2  0   0   0   0  0  0
  10  0  5   0   0   0  0  0
  11  2  0   0   0   0  0  0
  12  0  6   0   0   0  0  0
  13  2  0   0   0   0  0  0
  14  0  7   0   0   0  0  0
  15  2  0   0   0   0  0  0
  16  0  8   0   0   0  0  0
  17  2  0   0   0   0  0  0
  18  0  9   0   0   0  0  0
  19  2  0   0   0   0  0  0
  20  0 10   0   0   0  0  0
  21  2  0   0   0   0  0  0
  22  0 11   0   0   0  0  0
  23  2  0   0   0   0  0  0
  24  0 12   0   0   0  0  0
  25  2  0   0   0   0  0  0
  26  0 13   0   0   0  0  0
  27  2  0   0   0   0  0  0
  28  0 14   0   0   0  0  0
  29  2  0   0   0   0  0  0
  30  0 15   0   0   0  0  0
  31  2  0   0   0   0  0  0
  32  0 16   0   0   0  0  0
  33  2  0   0   0   0  0  0
  34  0 17   0   0   0  0  0
  35  2  0   0   0   0  0  0
  36  0 18   0   0   0  0  0
  37  2  0   0   0   0  0  0
  38  0 19   0   0   0  0  0
  39  2  0   0   0   0  0  0
  40  0 20   0   0   0  0  0
  41  2  0   0   0   0  0  0
  42  0 21   0   0   0  0  0
  43  2  0   0   0   0  0  0
  44  0 22   0   0   0  0  0
  45  2  0   0   0   0  0  0
  46  0 23   0   0   0  0  0
  47  2  0   0   0   0  0  0
  48  0 24   0   0   0  0  0
  49  2  0   0   0   0  0  0
  50  0 25   0   0   0  0  0
  51  2  0   0   0   0  0  0
  52  0 26   0   0   0  0  0
  53  2  0   0   0   0  0  0
  54  0 27   0   0   0  0  0
  55  2  0   0   0   0  0  0
  56  0 28   0   0   0  0  0
  57  2  0   0   0   0  0  0
  58  0 29   0   0   0  0  0
  59  2  0   0   0   0  0  0
  60  0 30   0   0   0  0  0
  61  2  0   0   0   0  0  0
  62  0 31   0   0   0  0  0
  63  2  0   0   0   0  0  0
  64  0 32   0   0   0  0  0
  65  2  0   0   0   0  0  0
  66  0 33   0   0   0  0  0
  67  2  0   0   0   0  0  0
  68  0 34   0   0   0  0  0
  69  2  0   0   0   0  0  0
  70  0 35   0   0   0  0  0
  71  2  0   0   0   0  0  0
  72  0 36   0   0   0  0  0
  73  0  0   1   1   1  0  0
  74  0  0   0   0   0  1  0
  75  1  0   0   0   0  0  0
  76  0 37   0   0   0  0  0
  77  2  0   0   0   0  0  0
  78  0 38   0   0   0  0  0
  79  2  0   0   0   0  0  0
  80  0 39   0   0   0  0  0
  81  2  0   0   0   0  0  0
  82  0 40   0   0   0  0  0
  83  2  0   0   0   0  0  0
  84  0 41   0   0   0  0  0
  85  2  0   0   0   0  0  0
  86  0 42   0   0   0  0  0
  87  2  0   0   0   0  0  0
  88  0 43   0   0   0  0  0
  89  2  0   0   0   0  0  0
  90  0 44   0   0   0  0  0
  91  2  0   0   0   0  0  0
  92  0 45   0   0   0  0  0
  93  2  0   0   0   0  0  0
  94  0 46   0   0   0  0  0
  95  2  0   0   0   0  0  0
  96  0 47   0   0   0  0  0
  97  2  0   0   0   0  0  0
  98  0 48   0   0   0  0  0
  99  2  0   0   0   0  0  0
 100  0 49   0   0   0  0  0
 101  2  0   0   0   0  0  0
 102  0 50   0   0   0  0  0
 103  2  0   0   0   0  0  0
 104  0 51   0   0   0  0  0
 105  2  0   0   0   0  0  0
 106  0 52   0   0   0  0  0
 107  2  0   0   0   0  0  0
 108  0 53   0   0   0  0  0
 109  2  0   0   0   0  0  0
 110  0 54   0   0   0  0  0
 111  2  0   0   0   0  0  0
 112  0 55   0   0   0  0  0
 113  2  0   0   0   0  0  0
 114  0 56   0   0   0  0  0
 115  2  0   0   0   0  0  0
 116  0 57   0   0   0  0  0
 117  2  0   0   0   0  0  0
 118  0 58   0   0   0  0  0
 119  2  0   0   0   0  0  0
 120  0 59   0   0   0  0  0
 121  2  0   0   0   0  0  0
 122  0 60   0   0   0  0  0
 123  2  0   0   0   0  0  0
 124  0 61   0   0   0  0  0
 125  2  0   0   0   0  0  0
 126  0 62   0   0   0  0  0
 127  2  0   0   0   0  0  0
 128  0 63   0   0   0  0  0
 129  2  0   0   0   0  0  0
 130  0 64   0   0   0  0  0
 131  2  0   0   0   0  0  0
 132  0 65   0   0   0  0  0
 133  2  0   0   0   0  0  0
 134  0 66   0   0   0  0  0
 135  2  0   0   0   0  0  0
 136  0 67   0   0   0  0  0
 137  2  0   0   0   0  0  0
 138  0 68   0   0   0  0  0
 139  2  0   0   0   0  0  0
 140  0 69   0   0   0  0  0
 141  2  0   0   0   0  0  0
 142  0 70   0   0   0  0  0
 143  2  0   0   0   0  0  0
 144  0 71   0   0   0  0  0
 145  2  0   0   0   0  0  0
 146  0 72   0   0   0  0  0
 147  0  0   1   1   1  0  0
 148  0  0   0   0   0  1  0
 149  1  0   0   0   0  0  0
 150  0 73   0   0   0  0  0
 151  2  0   0   0   0  0  0
 152  0 74   0   0   0  0  0
 153  2  0   0   0   0  0  0
 154  0 75   0   0   0  0  0
 155  2  0   0   0   0  0  0
 156  0 76   0   0   0  0  0
 157  2  0   0   0   0  0  0
 158  0 77   0   0   0  0  0
 159  2  0   0   0   0  0  0
 160  0 78   0   0   0  0  0
 161  2  0   0   0   0  0  0
 162  0 79   0   0   0  0  0
 163  2  0   0   0   0  0  0
 164  0 80   0   0   0  0  0
 165  2  0   0   0   0  0  0
 166  0 81   0   0   0  0  0
 167  2  0   0   0   0  0  0
 168  0 82   0   0   0  0  0
 169  2  0   0   0   0  0  0
 170  0 83   0   0   0  0  0
 171  2  0   0   0   0  0  0
 172  0 84   0   0   0  0  0
 173  2  0   0   0   0  0  0
 174  0 85   0   0   0  0  0
 175  2  0   0   0   0  0  0
 176  0 86   0   0   0  0  0
 177  2  0   0   0   0  0  0
 178  0 87   0   0   0  0  0
 179  2  0   0   0   0  0  0
 180  0 88   0   0   0  0  0
 181  2  0   0   0   0  0  0
 182  0 89   0   0   0  0  0
 183  2  0   0   0   0  0  0
 184  0 90   0   0   0  0  0
 185  2  0   0   0   0  0  0
 186  0 91   0   0   0  0  0
 187  2  0   0   0   0  0  0
 188  0 92   0   0   0  0  0
 189  2  0   0   0   0  0  0
 190  0 93   0   0   0  0  0
 191  2  0   0   0   0  0  0
 192  0 94   0   0   0  0  0
 193  2  0   0   0   0  0  0
 194  0 95   0   0   0  0  0
 195  2  0   0   0   0  0  0
 196  0 96   0   0   0  0  0
 197  2  0   0   0   0  0  0
 198  0 97   0   0   0  0  0
 199  2  0   0   0   0  0  0
 200  0 98   0   0   0  0  0
 201  2  0   0   0   0  0  0
 202  0 99   0   0   0  0  0
 203  2  0   0   0   0  0  0
 204  0 100   0   0   0  0  0
 205  2  0   0   0   0  0  0
 206  0 101   0   0   0  0  0
 207  2  0   0   0   0  0  0
 208  0 102   0   0   0  0  0
 209  2  0   0   0   0  0  0
 210  0 103   0   0   0  0  0
 211  2  0   0   0   0  0  0
 212  0 104   0   0   0  0  0
 213  2  0   0   0   0  0  0
 214  0 105   0   0   0  0  0
 215  2  0   0   0   0  0  0
 216  0 106   0   0   0  0  0
 217  2  0   0   0   0  0  0
 218  0 107   0   0   0  0  0
 219  2  0   0   0   0  0  0
 220  0 108   0   0   0  0  0
 221  0  0   1   1   1  0  0
 222  0  0   0   0   0  1  0
 223  1  0   0   0   0  0  0
 224  0 109   0   0   0  0  0
 225  2  0   0   0   0  0  0
 226  0 110   0   0   0  0  0
 227  2  0   0   0   0  0  0
 228  0 111   0   0   0  0  0
 229  2  0   0   0   0  0  0
 230  0 112   0   0   0  0  0
 231  2  0   0   0   0  0  0
 232  0 113   0   0   0  0  0
 233  2  0   0   0   0  0  0
 234  0 114   0   0   0  0  0
 235  2  0   0   0   0  0  0
 236  0 115   0   0   0  0  0
 237  2  0   0   0   0  0  0
 238  0 116   0   0   0  0  0
 239  2  0   0   0   0  0  0
 240  0 117   0   0   0  0  0
 241  2  0   0   0   0  0  0
 242  0 118   0   0   0  0  0
 243  2  0   0   0   0  0  0
 244  0 119   0   0   0  0  0
 245  2  0   0   0   0  0  0
 246  0 120   0   0   0  0  0
 247  2  0   0   0   0  0  0
 248  0 121   0   0   0  0  0
 249  2  0   0   0   0  0  0
 250  0 122   0   0   0  0  0
 251  2  0   0   0   0  0  0
 252  0 123   0   0   0  0  0
 253  2  0   0   0   0  0  0
 254  0 124   0   0   0  0  0
 255  2  0   0   0   0  0  0
 256  0 125   0   0   0  0  0
 257  2  0   0   0   0  0  0
 258  0 126   0   0   0  0  0
 259  2  0   0   0   0  0  0
 260  0 127   0   0   0  0  0
 261  2  0   0   0   0  0  0
 262  0 128   0   0   0  0  0
 263  2  0   0   0   0  0  0
 264  0 129   0   0   0  0  0
 265  2  0   0   0   0  0  0
 266  0 130   0   0   0  0  0
 267  2  0   0   0   0  0  0
 268  0 131   0   0   0  0  0
 269  2  0   0   0   0  0  0
 270  0 132   0   0   0  0  0
 271  2  0   0   0   0  0  0
 272  0 133   0   0   0  0  0
 273  2  0   0   0   0  0  0
 274  0 134   0   0   0  0  0
 275  2  0   0   0   0  0  0
 276  0 135   0   0   0  0  0
 277  2  0   0   0   0  0  0
 278  0 136   0   0   0  0  0
 279  2  0   0   0   0  0  0
 280  0 137   0   0   0  0  0
 281  2  0   0   0   0  0  0
 282  0 138   0   0   0  0  0
 283  2  0   0   0   0  0  0
 284  0 139   0   0   0  0  0
 285  2  0   0   0   0  0  0
 286  0 140   0   0   0  0  0
 287  2  0   0   0   0  0  0
 288  0 141   0   0   0  0  0
 289  2  0   0   0   0  0  0
 290  0 142   0   0   0  0  0
 291  2  0   0   0   0  0  0
 292  0 143   0   0   0  0  0
 293  2  0   0   0   0  0  0
 294  0 144   0   0   0  0  0
 295  0  0   1   1   1  0  0
 296  0  0   0   0   0  1  0
 297  1  0   0   0   0  0  0
 298  0 145   0   0   0  0  0
 299  2  0   0   0   0  0  0
 300  0 146   0   0   0  0  0
 301  2  0   0   0   0  0  0
 302  0 147   0   0   0  0  0
 303  2  0   0   0   0  0  0
 304  0 148   0   0   0  0  0
 305  2  0   0   0   0  0  0
 306  0 149   0   0   0  0  0
 307  2  0   0   0   0  0  0
 308  0 150   0   0   0  0  0
 309  2  0   0   0   0  0  0
 310  0 151   0   0   0  0  0
 311  2  0   0   0   0  0  0
 312  0 152   0   0   0  0  0
 313  2  0   0   0   0  0  0
 314  0 153   0   0   0  0  0
 315  2  0   0   0   0  0  0
 316  0 154   0   0   0  0  0
 317  2  0   0   0   0  0  0
 318  0 155   0   0   0  0  0
 319  2  0   0   0   0  0  0
 320  0 156   0   0   0  0  0
[RF]
1      141.677 1 2 100 -36977.6 0
2      141.677 1 2 100 -36977.6 0.750841
3      141.677 1 2 100 -36977.6 1.50168
4      141.677 1 2 100 -36977.6 2.25252
5      141.677 1 2 100 -36977.6 3.00336
6      141.677 1 2 100 -36977.6 3.7542
7      141.677 1 2 100 -36977.6 4.50504
8      141.677 1 2 100 -36977.6 5.25588
9      141.677 1 2 100 -36977.6 6.00673
10      141.677 1 2 100 -36977.6 0.47438
11      141.677 1 2 100 -36977.6 1.22522
12      141.677 1 2 100 -36977.6 1.97606
13      141.677 1 2 100 -36977.6 2.7269
14      141.677 1 2 100 -36977.6 3.47774
15      141.677 1 2 100 -36977.6 4.22858
16      141.677 1 2 100 -36977.6 4.97942
17      141.677 1 2 100 -36977.6 5.73027
18      141.677 1 2 100 -36977.6 0.19792
19      141.677 1 2 100 -36977.6 0.948761
20      141.677 1 2 100 -36977.6 1.6996
21      141.677 1 2 100 -36977.6 2.45044
22      141.677 1 2 100 -36977.6 3.20128
23      141.677 1 2 100 -36977.6 3.95212
24      141.677 1 2 100 -36977.6 4.70296
25      141.677 1 2 100 -36977.6 5.4538
26      141.677 1 2 100 -36977.6 6.20465
27      141.677 1 2 100 -36977.6 0.672301
28      141.677 1 2 100 -36977.6 1.42314
29      141.677 1 2 100 -36977.6 2.17398
30      141.677 1 2 100 -36977.6 2.92482
31      141.677 1 2 100 -36977.6 3.67566
32      141.677 1 2 100 -36977.6 4.4265
33      141.677 1 2 100 -36977.6 5.17734
34      141.677 1 2 100 -36977.6 5.92819
35      141.677 1 2 100 -36977.6 0.395841
36      141.677 1 2 100 -36977.6 1.14668
37      141.677 1 2 100 -493.035 0
38      141.677 1 2 100 -493.035 2.18818
39      141.677 1 2 100 -493.035 4.37636
40      141.677 1 2 100 -493.035 0.281361
41      141.677 1 2 100 -493.035 2.46954
42      141.677 1 2 100 -493.035 4.65773
43      141.677 1 2 100 -493.035 0.562722
44      141.677 1 2 100 -493.035 2.7509
45      141.677 1 2 100 -493.035 4.93909
46      141.677 1 2 100 -493.035 0.844083
47      141.677 1 2 100 -493.035 3.03227
48      141.677 1 2 100 -493.035 5.22045
49      141.677 1 2 100 -493.035 1.12544
50      141.677 1 2 100 -493.035 3.31363
51      141.677 1 2 100 -493.035 5.50181
52      141.677 1 2 100 -493.035 1.40681
53      141.677 1 2 100 -493.035 3.59499
54      141.677 1 2 100 -493.035 5.78317
55      141.677 1 2 100 -493.035 1.68817
56      141.677 1 2 100 -493.035 3.87635
57      141.677 1 2 100 -493.035 6.06453
58      141.677 1 2 100 -493.035 1.96953
59      141.677 1 2 100 -493.035 4.15771
60      141.677 1 2 100 -493.035 0.0627062
61      141.677 1 2 100 -493.035 2.25089
62      141.677 1 2 100 -493.035 4.43907
63      141.677 1 2 100 -493.035 0.344067
64      141.677 1 2 100 -493.035 2.53225
65      141.677 1 2 100 -493.035 4.72043
66      141.677 1 2 100 -493.035 0.625428
67      141.677 1 2 100 -493.035 2.81361
68      141.677 1 2 100 -493.035 5.00179
69      141.677 1 2 100 -493.035 0.906789
70      141.677 1 2 100 -493.035 3.09497
71      141.677 1 2 100 -493.035 5.28315
72      141.677 1 2 100 -493.035 1.18815
73      141.677 1 2 100 -462.22 0
74      141.677 1 2 100 -462.22 5.58571
75      141.677 1 2 100 -462.22 4.88824
76      141.677 1 2 100 -462.22 4.19077
77      141.677 1 2 100 -462.22 3.49329
78      141.677 1 2 100 -462.22 2.79582
79      141.677 1 2 100 -462.22 2.09835
80      141.677 1 2 100 -462.22 1.40088
81      141.677 1 2 100 -462.22 0.703403
82      141.677 1 2 100 -462.22 0.00592976
83      141.677 1 2 100 -462.22 5.59164
84      141.677 1 2 100 -462.22 4.89417
85      141.677 1 2 100 -462.22 4.1967
86      141.677 1 2 100 -462.22 3.49922
87      141.677 1 2 100 -462.22 2.80175
88      141.677 1 2 100 -462.22 2.10428
89      141.677 1 2 100 -462.22 1.40681
90      141.677 1 2 100 -462.22 0.709332
91      141.677 1 2 100 -462.22 0.0118595
92      141.677 1 2 100 -462.22 5.59757
93      141.677 1 2 100 -462.22 4.9001
94      141.677 1 2 100 -462.22 4.20263
95      141.677 1 2 100 -462.22 3.50515
96      141.677 1 2 100 -462.22 2.80768
97      141.677 1 2 100 -462.22 2.11021
98      141.677 1 2 100 -462.22 1.41273
99      141.677 1 2 100 -462.22 0.715262
100      141.677 1 2 100 -462.22 0.0177893
101      141.677 1 2 100 -462.22 5.6035
102      141.677 1 2 100 -462.22 4.90603
103      141.677 1 2 100 -462.22 4.20856
104      141.677 1 2 100 -462.22 3.51108
105      141.677 1 2 100 -462.22 2.81361
106      141.677 1 2 100 -462.22 2.11614
107      141.677 1 2 100 -462.22 1.41866
108      141.677 1 2 100 -462.22 0.721192
109      141.677 1 2 100 -431.405 0
110      141.677 1 2 100 -431.405 2.70006
111      141.677 1 2 100 -431.405 5.40012
112      141.677 1 2 100 -431.405 1.81699
113      141.677 1 2 100 -431.405 4.51704
114      141.677 1 2 100 -431.405 0.933917
115      141.677 1 2 100 -431.405 3.63397
116      141.677 1 2 100 -431.405 0.0508467
117      141.677 1 2 100 -431.405 2.7509
118      141.677 1 2 100 -431.405 5.45096
119      141.677 1 2 100 -431.405 1.86783
120      141.677 1 2 100 -431.405 4.56789
121      141.677 1 2 100 -431.405 0.984764
122      141.677 1 2 100 -431.405 3.68482
123      141.677 1 2 100 -431.405 0.101693
124      141.677 1 2 100 -431.405 2.80175
125      141.677 1 2 100 -431.405 5.50181
126      141.677 1 2 100 -431.405 1.91868
127      141.677 1 2 100 -431.405 4.61874
128      141.677 1 2 100 -431.405 1.03561
129      141.677 1 2 100 -431.405 3.73567
130      141.677 1 2 100 -431.405 0.15254
131      141.677 1 2 100 -431.405 2.8526
132      141.677 1 2 100 -431.405 5.55266
133      141.677 1 2 100 -431.405 1.96953
134      141.677 1 2 100 -431.405 4.66958
135      141.677 1 2 100 -431.405 1.08646
136      141.677 1 2 100 -431.405 3.78651
137      141.677 1 2 100 -431.405 0.203387
138      141.677 1 2 100 -431.405 2.90344
139      141.677 1 2 100 -431.405 5.6035
140      141.677 1 2 100 -431.405 2.02037
141      141.677 1 2 100 -431.405 4.72043
142      141.677 1 2 100 -431.405 1.1373
143      141.677 1 2 100 -431.405 3.83736
144      141.677 1 2 100 -431.405 0.254233
145      141.677 1 2 100 -400.591 0
146      141.677 1 2 100 -400.591 6.09759
147      141.677 1 2 100 -400.591 5.91199
148      141.677 1 2 100 -400.591 5.72639
149      141.677 1 2 100 -400.591 5.5408
150      141.677 1 2 100 -400.591 5.3552
151      141.677 1 2 100 -400.591 5.1696
152      141.677 1 2 100 -400.591 4.984
153      141.677 1 2 100 -400.591 4.79841
154      141.677 1 2 100 -400.591 4.61281
155      141.677 1 2 100 -400.591 4.42721
156      141.677 1 2 100 -400.591 4.24161
157      141.677 1 2 100 -400.591 4.05602
158      141.677 1 2 100 -400.591 3.87042
159      141.677 1 2 100 -400.591 3.68482
160      141.677 1 2 100 -400.591 3.49922
161      141.677 1 2 100 -400.591 3.31363
162      141.677 1 2 100 -400.591 3.12803
163      141.677 1 2 100 -400.591 2.94243
164      141.677 1 2 100 -400.591 2.75683
165      141.677 1 2 100 -400.591 2.57124
166      141.677 1 2 100 -400.591 2.38564
167      141.677 1 2 100 -400.591 2.20004
168      141.677 1 2 100 -400.591 2.01444
169      141.677 1 2 100 -400.591 1.82885
170      141.677 1 2 100 -400.591 1.64325
171      141.677 1 2 100 -400.591 1.45765
172      141.677 1 2 100 -400.591 1.27205
173      141.677 1 2 100 -400.591 1.08646
174      141.677 1 2 100 -400.591 0.90086
175      141.677 1 2 100 -400.591 0.715262
176      141.677 1 2 100 -400.591 0.529665
177      141.677 1 2 100 -400.591 0.344067
178      141.677 1 2 100 -400.591 0.15847
179      141.677 1 2 100 -400.591 6.25606
180      141.677 1 2 100 -400.591 6.07046
181      141.677 1 2 100 -369.776 0
182      141.677 1 2 100 -369.776 3.21193
183      141.677 1 2 100 -369.776 0.140681
184      141.677 1 2 100 -369.776 3.35261
185      141.677 1 2 100 -369.776 0.281361
186      141.677 1 2 100 -369.776 3.49329
187      141.677 1 2 100 -369.776 0.422042
188      141.677 1 2 100 -369.776 3.63397
189      141.677 1 2 100 -369.776 0.562722
190      141.677 1 2 100 -369.776 3.77465
191      141.677 1 2 100 -369.776 0.703403
192      141.677 1 2 100 -369.776 3.91534
193      141.677 1 2 100 -369.776 0.844083
194      141.677 1 2 100 -369.776 4.05602
195      141.677 1 2 100 -369.776 0.984764
196      141.677 1 2 100 -369.776 4.1967
197      141.677 1 2 100 -369.776 1.12544
198      141.677 1 2 100 -369.776 4.33738
199      141.677 1 2 100 -369.776 1.26612
200      141.677 1 2 100 -369.776 4.47806
201      141.677 1 2 100 -369.776 1.40681
202      141.677 1 2 100 -369.776 4.61874
203      141.677 1 2 100 -369.776 1.54749
204      141.677 1 2 100 -369.776 4.75942
205      141.677 1 2 100 -369.776 1.68817
206      141.677 1 2 100 -369.776 4.9001
207      141.677 1 2 100 -369.776 1.82885
208      141.677 1 2 100 -369.776 5.04078
209      141.677 1 2 100 -369.776 1.96953
210      141.677 1 2 100 -369.776 5.18146
211      141.677 1 2 100 -369.776 2.11021
212      141.677 1 2 100 -369.776 5.32214
213      141.677 1 2 100 -369.776 2.25089
214      141.677 1 2 100 -369.776 5.46282
215      141.677 1 2 100 -369.776 2.39157
216      141.677 1 2 100 -369.776 5.6035
217      141.677 1 2 100 -338.961 0
218      141.677 1 2 100 -338.961 0.326278
219      141.677 1 2 100 -338.961 0.652556
220      141.677 1 2 100 -338.961 0.978834
221      141.677 1 2 100 -338.961 1.30511
222      141.677 1 2 100 -338.961 1.63139
223      141.677 1 2 100 -338.961 1.95767
224      141.677 1 2 100 -338.961 2.28395
225      141.677 1 2 100 -338.961 2.61022
226      141.677 1 2 100 -338.961 2.9365
227      141.677 1 2 100 -338.961 3.26278
228      141.677 1 2 100 -338.961 3.58906
229      141.677 1 2 100 -338.961 3.91534
230      141.677 1 2 100 -338.961 4.24161
231      141.677 1 2 100 -338.961 4.56789
232      141.677 1 2 100 -338.961 4.89417
233      141.677 1 2 100 -338.961 5.22045
234      141.677 1 2 100 -338.961 5.54673
235      141.677 1 2 100 -338.961 5.873
236      141.677 1 2 100 -338.961 6.19928
237      141.677 1 2 100 -338.961 0.242374
238      141.677 1 2 100 -338.961 0.568652
239      141.677 1 2 100 -338.961 0.89493
240      141.677 1 2 100 -338.961 1.22121
241      141.677 1 2 100 -338.961 1.54749
242      141.677 1 2 100 -338.961 1.87376
243      141.677 1 2 100 -338.961 2.20004
244      141.677 1 2 100 -338.961 2.52632
245      141.677 1 2 100 -338.961 2.8526
246      141.677 1 2 100 -338.961 3.17888
247      141.677 1 2 100 -338.961 3.50515
248      141.677 1 2 100 -338.961 3.83143
249      141.677 1 2 100 -338.961 4.15771
250      141.677 1 2 100 -338.961 4.48399
251      141.677 1 2 100 -338.961 4.81027
252      141.677 1 2 100 -338.961 5.13654
253      141.677 1 2 100 -308.147 0
254      141.677 1 2 100 -308.147 3.72381
255      141.677 1 2 100 -308.147 1.16443
256      141.677 1 2 100 -308.147 4.88824
257      141.677 1 2 100 -308.147 2.32886
258      141.677 1 2 100 -308.147 6.05267
259      141.677 1 2 100 -308.147 3.49329
260      141.677 1 2 100 -308.147 0.933917
261      141.677 1 2 100 -308.147 4.65773
262      141.677 1 2 100 -308.147 2.09835
263      141.677 1 2 100 -308.147 5.82216
264      141.677 1 2 100 -308.147 3.26278
265      141.677 1 2 100 -308.147 0.703403
266      141.677 1 2 100 -308.147 4.42721
267      141.677 1 2 100 -308.147 1.86783
268      141.677 1 2 100 -308.147 5.59164
269      141.677 1 2 100 -308.147 3.03227
270      141.677 1 2 100 -308.147 0.472888
271      141.677 1 2 100 -308.147 4.1967
272      141.677 1 2 100 -308.147 1.63732
273      141.677 1 2 100 -308.147 5.36113
274      141.677 1 2 100 -308.147 2.80175
275      141.677 1 2 100 -308.147 0.242374
276      141.677 1 2 100 -308.147 3.96618
277      141.677 1 2 100 -308.147 1.40681
278      141.677 1 2 100 -308.147 5.13061
279      141.677 1 2 100 -308.147 2.57124
280      141.677 1 2 100 -308.147 0.0118595
281      141.677 1 2 100 -308.147 3.73567
282      141.677 1 2 100 -308.147 1.17629
283      141.677 1 2 100 -308.147 4.9001
284      141.677 1 2 100 -308.147 2.34072
285      141.677 1 2 100 -308.147 6.06453
286      141.677 1 2 100 -308.147 3.50515
287      141.677 1 2 100 -308.147 0.945776
288      141.677 1 2 100 -308.147 4.66958
289      141.677 1 2 100 -277.332 0
290      141.677 1 2 100 -277.332 0.838153
291      141.677 1 2 100 -277.332 1.67631
292      141.677 1 2 100 -277.332 2.51446
293      141.677 1 2 100 -277.332 3.35261
294      141.677 1 2 100 -277.332 4.19077
295      141.677 1 2 100 -277.332 5.02892
296      141.677 1 2 100 -277.332 5.86707
297      141.677 1 2 100 -277.332 0.422042
298      141.677 1 2 100 -277.332 1.26019
299      141.677 1 2 100 -277.332 2.09835
300      141.677 1 2 100 -277.332 2.9365
301      141.677 1 2 100 -277.332 3.77465
302      141.677 1 2 100 -277.332 4.61281
303      141.677 1 2 100 -277.332 5.45096
304      141.677 1 2 100 -277.332 0.00592976
305      141.677 1 2 100 -277.332 0.844083
306      141.677 1 2 100 -277.332 1.68224
307      141.677 1 2 100 -277.332 2.52039
308      141.677 1 2 100 -277.332 3.35854
309      141.677 1 2 100 -277.332 4.1967
310      141.677 1 2 100 -277.332 5.03485
311      141.677 1 2 100 -277.332 5.873
312      141.677 1 2 100 -277.332 0.427971
313      141.677 1 2 100 -277.332 1.26612
314      141.677 1 2 100 -277.332 2.10428
315      141.677 1 2 100 -277.332 2.94243
316      141.677 1 2 100 -277.332 3.78058
317      141.677 1 2 100 -277.332 4.61874
318      141.677 1 2 100 -277.332 5.45689
319      141.677 1 2 100 -277.332 0.0118595
320      141.677 1 2 100 -277.332 0.850013
321      141.677 1 2 100 -277.332 1.68817
322      141.677 1 2 100 -277.332 2.52632
323      141.677 1 2 100 -277.332 3.36447
324      141.677 1 2 100 -277.332 4.20263
325      141.677 1 2 100 -246.517 0
326      141.677 1 2 100 -246.517 4.23568
327      141.677 1 2 100 -246.517 2.18818
328      141.677 1 2 100 -246.517 0.140681
329      141.677 1 2 100 -246.517 4.37636
330      141.677 1 2 100 -246.517 2.32886
331      141.677 1 2 100 -246.517 0.281361
332      141.677 1 2 100 -246.517 4.51704
333      141.677 1 2 100 -246.517 2.46954
334      141.677 1 2 100 -246.517 0.422042
335      141.677 1 2 100 -246.517 4.65773
336      141.677 1 2 100 -246.517 2.61022
337      141.677 1 2 100 -246.517 0.562722
338      141.677 1 2 100 -246.517 4.79841
339      141.677 1 2 100 -246.517 2.7509
340      141.677 1 2 100 -246.517 0.703403
341      141.677 1 2 100 -246.517 4.93909
342      141.677 1 2 100 -246.517 2.89158
343      141.677 1 2 100 -246.517 0.844083
344      141.677 1 2 100 -246.517 5.07977
345      141.677 1 2 100 -246.517 3.03227
346      141.677 1 2 100 -246.517 0.984764
347      141.677 1 2 100 -246.517 5.22045
348      141.677 1 2 100 -246.517 3.17295
349      141.677 1 2 100 -246.517 1.12544
350      141.677 1 2 100 -246.517 5.36113
351      141.677 1 2 100 -246.517 3.31363
352      141.677 1 2 100 -246.517 1.26612
353      141.677 1 2 100 -246.517 5.50181
354      141.677 1 2 100 -246.517 3.45431
355      141.677 1 2 100 -246.517 1.40681
356      141.677 1 2 100 -246.517 5.64249
357      141.677 1 2 100 -246.517 3.59499
358      141.677 1 2 100 -246.517 1.54749
359      141.677 1 2 100 -246.517 5.78317
360      141.677 1 2 100 -246.517 3.73567
361      141.677 1 2 100 -215.703 0
362      141.677 1 2 100 -215.703 1.35003
363      141.677 1 2 100 -215.703 2.70006
364      141.677 1 2 100 -215.703 4.05009
365      141.677 1 2 100 -215.703 5.40012
366      141.677 1 2 100 -215.703 0.466958
367      141.677 1 2 100 -215.703 1.81699
368      141.677 1 2 100 -215.703 3.16702
369      141.677 1 2 100 -215.703 4.51704
370      141.677 1 2 100 -215.703 5.86707
371      141.677 1 2 100 -215.703 0.933917
372      141.677 1 2 100 -215.703 2.28395
373      141.677 1 2 100 -215.703 3.63397
374      141.677 1 2 100 -215.703 4.984
375      141.677 1 2 100 -215.703 0.0508467
376      141.677 1 2 100 -215.703 1.40088
377      141.677 1 2 100 -215.703 2.7509
378      141.677 1 2 100 -215.703 4.10093
379      141.677 1 2 100 -215.703 5.45096
380      141.677 1 2 100 -215.703 0.517805
381      141.677 1 2 100 -215.703 1.86783
382      141.677 1 2 100 -215.703 3.21786
383      141.677 1 2 100 -215.703 4.56789
384      141.677 1 2 100 -215.703 5.91792
385      141.677 1 2 100 -215.703 0.984764
386      141.677 1 2 100 -215.703 2.33479
387      141.677 1 2 100 -215.703 3.68482
388      141.677 1 2 100 -215.703 5.03485
389      141.677 1 2 100 -215.703 0.101693
390      141.677 1 2 100 -215.703 1.45172
391      141.677 1 2 100 -215.703 2.80175
392      141.677 1 2 100 -215.703 4.15178
393      141.677 1 2 100 -215.703 5.50181
394      141.677 1 2 100 -215.703 0.568652
395      141.677 1 2 100 -215.703 1.91868
396      141.677 1 2 100 -215.703 3.26871
397      141.677 1 2 100 -184.888 0
398      141.677 1 2 100 -184.888 4.74756
399      141.677 1 2 100 -184.888 3.21193
400      141.677 1 2 100 -184.888 1.67631
401      141.677 1 2 100 -184.888 0.140681
402      141.677 1 2 100 -184.888 4.88824
403      141.677 1 2 100 -184.888 3.35261
404      141.677 1 2 100 -184.888 1.81699
405      141.677 1 2 100 -184.888 0.281361
406      141.677 1 2 100 -184.888 5.02892
407      141.677 1 2 100 -184.888 3.49329
408      141.677 1 2 100 -184.888 1.95767
409      141.677 1 2 100 -184.888 0.422042
410      141.677 1 2 100 -184.888 5.1696
411      141.677 1 2 100 -184.888 3.63397
412      141.677 1 2 100 -184.888 2.09835
413      141.677 1 2 100 -184.888 0.562722
414      141.677 1 2 100 -184.888 5.31028
415      141.677 1 2 100 -184.888 3.77465
416      141.677 1 2 100 -184.888 2.23903
417      141.677 1 2 100 -184.888 0.703403
418      141.677 1 2 100 -184.888 5.45096
419      141.677 1 2 100 -184.888 3.91534
420      141.677 1 2 100 -184.888 2.37971
421      141.677 1 2 100 -184.888 0.844083
422      141.677 1 2 100 -184.888 5.59164
423      141.677 1 2 100 -184.888 4.05602
424      141.677 1 2 100 -184.888 2.52039
425      141.677 1 2 100 -184.888 0.984764
426      141.677 1 2 100 -184.888 5.73232
427      141.677 1 2 100 -184.888 4.1967
428      141.677 1 2 100 -184.888 2.66107
429      141.677 1 2 100 -184.888 1.12544
430      141.677 1 2 100 -184.888 5.873
431      141.677 1 2 100 -184.888 4.33738
432      141.677 1 2 100 -184.888 2.80175
433      141.677 1 2 100 -154.073 0
434      141.677 1 2 100 -154.073 1.8619
435      141.677 1 2 100 -154.073 3.72381
436      141.677 1 2 100 -154.073 5.58571
437      141.677 1 2 100 -154.073 1.16443
438      141.677 1 2 100 -154.073 3.02634
439      141.677 1 2 100 -154.073 4.88824
440      141.677 1 2 100 -154.073 0.466958
441      141.677 1 2 100 -154.073 2.32886
442      141.677 1 2 100 -154.073 4.19077
443      141.677 1 2 100 -154.073 6.05267
444      141.677 1 2 100 -154.073 1.63139
445      141.677 1 2 100 -154.073 3.49329
446      141.677 1 2 100 -154.073 5.3552
447      141.677 1 2 100 -154.073 0.933917
448      141.677 1 2 100 -154.073 2.79582
449      141.677 1 2 100 -154.073 4.65773
450      141.677 1 2 100 -154.073 0.236444
451      141.677 1 2 100 -154.073 2.09835
452      141.677 1 2 100 -154.073 3.96025
453      141.677 1 2 100 -154.073 5.82216
454      141.677 1 2 100 -154.073 1.40088
455      141.677 1 2 100 -154.073 3.26278
456      141.677 1 2 100 -154.073 5.12468
457      141.677 1 2 100 -154.073 0.703403
458      141.677 1 2 100 -154.073 2.56531
459      141.677 1 2 100 -154.073 4.42721
460      141.677 1 2 100 -154.073 0.00592976
461      141.677 1 2 100 -154.073 1.86783
462      141.677 1 2 100 -154.073 3.72974
463      141.677 1 2 100 -154.073 5.59164
464      141.677 1 2 100 -154.073 1.17036
465      141.677 1 2 100 -154.073 3.03227
466      141.677 1 2 100 -154.073 4.89417
467      141.677 1 2 100 -154.073 0.472888
468      141.677 1 2 100 -154.073 2.33479
469      141.677 1 2 100 -123.259 0
470      141.677 1 2 100 -123.259 5.25943
471      141.677 1 2 100 -123.259 4.23568
472      141.677 1 2 100 -123.259 3.21193
473      141.677 1 2 100 -123.259 2.18818
474      141.677 1 2 100 -123.259 1.16443
475      141.677 1 2 100 -123.259 0.140681
476      141.677 1 2 100 -123.259 5.40012
477      141.677 1 2 100 -123.259 4.37636
478      141.677 1 2 100 -123.259 3.35261
479      141.677 1 2 100 -123.259 2.32886
480      141.677 1 2 100 -123.259 1.30511
