# Pulseq sequence file
# Created by MATLAB mr toolbox

# Created for Pulseq-CEST
# https://pulseq-cest.github.io/
# Created by: Kai Herz
# Created at: 28-Nov-2023 16:56:39

[VERSION]
major 1
minor 3
revision 1

[DEFINITIONS]
B0 2.89500052 
B1pa 1.78 
B1rms 1.99620497 
DCsat 0.909090909 
FREQ 123.2587 
M0_offset -300 
Trec 3.5 
Trec_M0 3.5 
Tsat 1.975 
n_pulses 36 
num_meas 802 
offsets_ppm -300 -4 -3.99 -3.98 -3.97 -3.96 -3.95 -3.94 -3.93 -3.92 -3.91 -3.9 -3.89 -3.88 -3.87 -3.86 -3.85 -3.84 -3.83 -3.82 -3.81 -3.8 -3.79 -3.78 -3.77 -3.76 -3.75 -3.74 -3.73 -3.72 -3.71 -3.7 -3.69 -3.68 -3.67 -3.66 -3.65 -3.64 -3.63 -3.62 -3.61 -3.6 -3.59 -3.58 -3.57 -3.56 -3.55 -3.54 -3.53 -3.52 -3.51 -3.5 -3.49 -3.48 -3.47 -3.46 -3.45 -3.44 -3.43 -3.42 -3.41 -3.4 -3.39 -3.38 -3.37 -3.36 -3.35 -3.34 -3.33 -3.32 -3.31 -3.3 -3.29 -3.28 -3.27 -3.26 -3.25 -3.24 -3.23 -3.22 -3.21 -3.2 -3.19 -3.18 -3.17 -3.16 -3.15 -3.14 -3.13 -3.12 -3.11 -3.1 -3.09 -3.08 -3.07 -3.06 -3.05 -3.04 -3.03 -3.02 -3.01 -3 -2.99 -2.98 -2.97 -2.96 -2.95 -2.94 -2.93 -2.92 -2.91 -2.9 -2.89 -2.88 -2.87 -2.86 -2.85 -2.84 -2.83 -2.82 -2.81 -2.8 -2.79 -2.78 -2.77 -2.76 -2.75 -2.74 -2.73 -2.72 -2.71 -2.7 -2.69 -2.68 -2.67 -2.66 -2.65 -2.64 -2.63 -2.62 -2.61 -2.6 -2.59 -2.58 -2.57 -2.56 -2.55 -2.54 -2.53 -2.52 -2.51 -2.5 -2.49 -2.48 -2.47 -2.46 -2.45 -2.44 -2.43 -2.42 -2.41 -2.4 -2.39 -2.38 -2.37 -2.36 -2.35 -2.34 -2.33 -2.32 -2.31 -2.3 -2.29 -2.28 -2.27 -2.26 -2.25 -2.24 -2.23 -2.22 -2.21 -2.2 -2.19 -2.18 -2.17 -2.16 -2.15 -2.14 -2.13 -2.12 -2.11 -2.1 -2.09 -2.08 -2.07 -2.06 -2.05 -2.04 -2.03 -2.02 -2.01 -2 -1.99 -1.98 -1.97 -1.96 -1.95 -1.94 -1.93 -1.92 -1.91 -1.9 -1.89 -1.88 -1.87 -1.86 -1.85 -1.84 -1.83 -1.82 -1.81 -1.8 -1.79 -1.78 -1.77 -1.76 -1.75 -1.74 -1.73 -1.72 -1.71 -1.7 -1.69 -1.68 -1.67 -1.66 -1.65 -1.64 -1.63 -1.62 -1.61 -1.6 -1.59 -1.58 -1.57 -1.56 -1.55 -1.54 -1.53 -1.52 -1.51 -1.5 -1.49 -1.48 -1.47 -1.46 -1.45 -1.44 -1.43 -1.42 -1.41 -1.4 -1.39 -1.38 -1.37 -1.36 -1.35 -1.34 -1.33 -1.32 -1.31 -1.3 -1.29 -1.28 -1.27 -1.26 -1.25 -1.24 -1.23 -1.22 -1.21 -1.2 -1.19 -1.18 -1.17 -1.16 -1.15 -1.14 -1.13 -1.12 -1.11 -1.1 -1.09 -1.08 -1.07 -1.06 -1.05 -1.04 -1.03 -1.02 -1.01 -1 -0.99 -0.98 -0.97 -0.96 -0.95 -0.94 -0.93 -0.92 -0.91 -0.9 -0.89 -0.88 -0.87 -0.86 -0.85 -0.84 -0.83 -0.82 -0.81 -0.8 -0.79 -0.78 -0.77 -0.76 -0.75 -0.74 -0.73 -0.72 -0.71 -0.7 -0.69 -0.68 -0.67 -0.66 -0.65 -0.64 -0.63 -0.62 -0.61 -0.6 -0.59 -0.58 -0.57 -0.56 -0.55 -0.54 -0.53 -0.52 -0.51 -0.5 -0.49 -0.48 -0.47 -0.46 -0.45 -0.44 -0.43 -0.42 -0.41 -0.4 -0.39 -0.38 -0.37 -0.36 -0.35 -0.34 -0.33 -0.32 -0.31 -0.3 -0.29 -0.28 -0.27 -0.26 -0.25 -0.24 -0.23 -0.22 -0.21 -0.2 -0.19 -0.18 -0.17 -0.16 -0.15 -0.14 -0.13 -0.12 -0.11 -0.1 -0.09 -0.08 -0.07 -0.06 -0.05 -0.04 -0.03 -0.02 -0.01 0 0.01 0.02 0.03 0.04 0.05 0.06 0.07 0.08 0.09 0.1 0.11 0.12 0.13 0.14 0.15 0.16 0.17 0.18 0.19 0.2 0.21 0.22 0.23 0.24 0.25 0.26 0.27 0.28 0.29 0.3 0.31 0.32 0.33 0.34 0.35 0.36 0.37 0.38 0.39 0.4 0.41 0.42 0.43 0.44 0.45 0.46 0.47 0.48 0.49 0.5 0.51 0.52 0.53 0.54 0.55 0.56 0.57 0.58 0.59 0.6 0.61 0.62 0.63 0.64 0.65 0.66 0.67 0.68 0.69 0.7 0.71 0.72 0.73 0.74 0.75 0.76 0.77 0.78 0.79 0.8 0.81 0.82 0.83 0.84 0.85 0.86 0.87 0.88 0.89 0.9 0.91 0.92 0.93 0.94 0.95 0.96 0.97 0.98 0.99 1 1.01 1.02 1.03 1.04 1.05 1.06 1.07 1.08 1.09 1.1 1.11 1.12 1.13 1.14 1.15 1.16 1.17 1.18 1.19 1.2 1.21 1.22 1.23 1.24 1.25 1.26 1.27 1.28 1.29 1.3 1.31 1.32 1.33 1.34 1.35 1.36 1.37 1.38 1.39 1.4 1.41 1.42 1.43 1.44 1.45 1.46 1.47 1.48 1.49 1.5 1.51 1.52 1.53 1.54 1.55 1.56 1.57 1.58 1.59 1.6 1.61 1.62 1.63 1.64 1.65 1.66 1.67 1.68 1.69 1.7 1.71 1.72 1.73 1.74 1.75 1.76 1.77 1.78 1.79 1.8 1.81 1.82 1.83 1.84 1.85 1.86 1.87 1.88 1.89 1.9 1.91 1.92 1.93 1.94 1.95 1.96 1.97 1.98 1.99 2 2.01 2.02 2.03 2.04 2.05 2.06 2.07 2.08 2.09 2.1 2.11 2.12 2.13 2.14 2.15 2.16 2.17 2.18 2.19 2.2 2.21 2.22 2.23 2.24 2.25 2.26 2.27 2.28 2.29 2.3 2.31 2.32 2.33 2.34 2.35 2.36 2.37 2.38 2.39 2.4 2.41 2.42 2.43 2.44 2.45 2.46 2.47 2.48 2.49 2.5 2.51 2.52 2.53 2.54 2.55 2.56 2.57 2.58 2.59 2.6 2.61 2.62 2.63 2.64 2.65 2.66 2.67 2.68 2.69 2.7 2.71 2.72 2.73 2.74 2.75 2.76 2.77 2.78 2.79 2.8 2.81 2.82 2.83 2.84 2.85 2.86 2.87 2.88 2.89 2.9 2.91 2.92 2.93 2.94 2.95 2.96 2.97 2.98 2.99 3 3.01 3.02 3.03 3.04 3.05 3.06 3.07 3.08 3.09 3.1 3.11 3.12 3.13 3.14 3.15 3.16 3.17 3.18 3.19 3.2 3.21 3.22 3.23 3.24 3.25 3.26 3.27 3.28 3.29 3.3 3.31 3.32 3.33 3.34 3.35 3.36 3.37 3.38 3.39 3.4 3.41 3.42 3.43 3.44 3.45 3.46 3.47 3.48 3.49 3.5 3.51 3.52 3.53 3.54 3.55 3.56 3.57 3.58 3.59 3.6 3.61 3.62 3.63 3.64 3.65 3.66 3.67 3.68 3.69 3.7 3.71 3.72 3.73 3.74 3.75 3.76 3.77 3.78 3.79 3.8 3.81 3.82 3.83 3.84 3.85 3.86 3.87 3.88 3.89 3.9 3.91 3.92 3.93 3.94 3.95 3.96 3.97 3.98 3.99 4 
seq_id_string  
spoiling 1 
td 0.005 
tp 0.05 

# Format of blocks:
#  #  D RF  GX  GY  GZ ADC EXT
[BLOCKS]
    1  1  0   0   0   0  0  0
    2  0  1   0   0   0  0  0
    3  2  0   0   0   0  0  0
    4  0  2   0   0   0  0  0
    5  2  0   0   0   0  0  0
    6  0  3   0   0   0  0  0
    7  2  0   0   0   0  0  0
    8  0  4   0   0   0  0  0
    9  2  0   0   0   0  0  0
   10  0  5   0   0   0  0  0
   11  2  0   0   0   0  0  0
   12  0  6   0   0   0  0  0
   13  2  0   0   0   0  0  0
   14  0  7   0   0   0  0  0
   15  2  0   0   0   0  0  0
   16  0  8   0   0   0  0  0
   17  2  0   0   0   0  0  0
   18  0  9   0   0   0  0  0
   19  2  0   0   0   0  0  0
   20  0 10   0   0   0  0  0
   21  2  0   0   0   0  0  0
   22  0 11   0   0   0  0  0
   23  2  0   0   0   0  0  0
   24  0 12   0   0   0  0  0
   25  2  0   0   0   0  0  0
   26  0 13   0   0   0  0  0
   27  2  0   0   0   0  0  0
   28  0 14   0   0   0  0  0
   29  2  0   0   0   0  0  0
   30  0 15   0   0   0  0  0
   31  2  0   0   0   0  0  0
   32  0 16   0   0   0  0  0
   33  2  0   0   0   0  0  0
   34  0 17   0   0   0  0  0
   35  2  0   0   0   0  0  0
   36  0 18   0   0   0  0  0
   37  2  0   0   0   0  0  0
   38  0 19   0   0   0  0  0
   39  2  0   0   0   0  0  0
   40  0 20   0   0   0  0  0
   41  2  0   0   0   0  0  0
   42  0 21   0   0   0  0  0
   43  2  0   0   0   0  0  0
   44  0 22   0   0   0  0  0
   45  2  0   0   0   0  0  0
   46  0 23   0   0   0  0  0
   47  2  0   0   0   0  0  0
   48  0 24   0   0   0  0  0
   49  2  0   0   0   0  0  0
   50  0 25   0   0   0  0  0
   51  2  0   0   0   0  0  0
   52  0 26   0   0   0  0  0
   53  2  0   0   0   0  0  0
   54  0 27   0   0   0  0  0
   55  2  0   0   0   0  0  0
   56  0 28   0   0   0  0  0
   57  2  0   0   0   0  0  0
   58  0 29   0   0   0  0  0
   59  2  0   0   0   0  0  0
   60  0 30   0   0   0  0  0
   61  2  0   0   0   0  0  0
   62  0 31   0   0   0  0  0
   63  2  0   0   0   0  0  0
   64  0 32   0   0   0  0  0
   65  2  0   0   0   0  0  0
   66  0 33   0   0   0  0  0
   67  2  0   0   0   0  0  0
   68  0 34   0   0   0  0  0
   69  2  0   0   0   0  0  0
   70  0 35   0   0   0  0  0
   71  2  0   0   0   0  0  0
   72  0 36   0   0   0  0  0
   73  0  0   1   1   1  0  0
   74  0  0   0   0   0  1  0
   75  1  0   0   0   0  0  0
   76  0 37   0   0   0  0  0
   77  2  0   0   0   0  0  0
   78  0 38   0   0   0  0  0
   79  2  0   0   0   0  0  0
   80  0 39   0   0   0  0  0
   81  2  0   0   0   0  0  0
   82  0 40   0   0   0  0  0
   83  2  0   0   0   0  0  0
   84  0 41   0   0   0  0  0
   85  2  0   0   0   0  0  0
   86  0 42   0   0   0  0  0
   87  2  0   0   0   0  0  0
   88  0 43   0   0   0  0  0
   89  2  0   0   0   0  0  0
   90  0 44   0   0   0  0  0
   91  2  0   0   0   0  0  0
   92  0 45   0   0   0  0  0
   93  2  0   0   0   0  0  0
   94  0 46   0   0   0  0  0
   95  2  0   0   0   0  0  0
   96  0 47   0   0   0  0  0
   97  2  0   0   0   0  0  0
   98  0 48   0   0   0  0  0
   99  2  0   0   0   0  0  0
  100  0 49   0   0   0  0  0
  101  2  0   0   0   0  0  0
  102  0 50   0   0   0  0  0
  103  2  0   0   0   0  0  0
  104  0 51   0   0   0  0  0
  105  2  0   0   0   0  0  0
  106  0 52   0   0   0  0  0
  107  2  0   0   0   0  0  0
  108  0 53   0   0   0  0  0
  109  2  0   0   0   0  0  0
  110  0 54   0   0   0  0  0
  111  2  0   0   0   0  0  0
  112  0 55   0   0   0  0  0
  113  2  0   0   0   0  0  0
  114  0 56   0   0   0  0  0
  115  2  0   0   0   0  0  0
  116  0 57   0   0   0  0  0
  117  2  0   0   0   0  0  0
  118  0 58   0   0   0  0  0
  119  2  0   0   0   0  0  0
  120  0 59   0   0   0  0  0
  121  2  0   0   0   0  0  0
  122  0 60   0   0   0  0  0
  123  2  0   0   0   0  0  0
  124  0 61   0   0   0  0  0
  125  2  0   0   0   0  0  0
  126  0 62   0   0   0  0  0
  127  2  0   0   0   0  0  0
  128  0 63   0   0   0  0  0
  129  2  0   0   0   0  0  0
  130  0 64   0   0   0  0  0
  131  2  0   0   0   0  0  0
  132  0 65   0   0   0  0  0
  133  2  0   0   0   0  0  0
  134  0 66   0   0   0  0  0
  135  2  0   0   0   0  0  0
  136  0 67   0   0   0  0  0
  137  2  0   0   0   0  0  0
  138  0 68   0   0   0  0  0
  139  2  0   0   0   0  0  0
  140  0 69   0   0   0  0  0
  141  2  0   0   0   0  0  0
  142  0 70   0   0   0  0  0
  143  2  0   0   0   0  0  0
  144  0 71   0   0   0  0  0
  145  2  0   0   0   0  0  0
  146  0 72   0   0   0  0  0
  147  0  0   1   1   1  0  0
  148  0  0   0   0   0  1  0
  149  1  0   0   0   0  0  0
  150  0 73   0   0   0  0  0
  151  2  0   0   0   0  0  0
  152  0 74   0   0   0  0  0
  153  2  0   0   0   0  0  0
  154  0 75   0   0   0  0  0
  155  2  0   0   0   0  0  0
  156  0 76   0   0   0  0  0
  157  2  0   0   0   0  0  0
  158  0 77   0   0   0  0  0
  159  2  0   0   0   0  0  0
  160  0 78   0   0   0  0  0
  161  2  0   0   0   0  0  0
  162  0 79   0   0   0  0  0
  163  2  0   0   0   0  0  0
  164  0 80   0   0   0  0  0
  165  2  0   0   0   0  0  0
  166  0 81   0   0   0  0  0
  167  2  0   0   0   0  0  0
  168  0 82   0   0   0  0  0
  169  2  0   0   0   0  0  0
  170  0 83   0   0   0  0  0
  171  2  0   0   0   0  0  0
  172  0 84   0   0   0  0  0
[RF]
1      141.677 1 2 100 -36977.6 0
2      141.677 1 2 100 -36977.6 0.750841
3      141.677 1 2 100 -36977.6 1.50168
4      141.677 1 2 100 -36977.6 2.25252
5      141.677 1 2 100 -36977.6 3.00336
6      141.677 1 2 100 -36977.6 3.7542
7      141.677 1 2 100 -36977.6 4.50504
8      141.677 1 2 100 -36977.6 5.25588
9      141.677 1 2 100 -36977.6 6.00673
10      141.677 1 2 100 -36977.6 0.47438
11      141.677 1 2 100 -36977.6 1.22522
12      141.677 1 2 100 -36977.6 1.97606
13      141.677 1 2 100 -36977.6 2.7269
14      141.677 1 2 100 -36977.6 3.47774
15      141.677 1 2 100 -36977.6 4.22858
16      141.677 1 2 100 -36977.6 4.97942
17      141.677 1 2 100 -36977.6 5.73027
18      141.677 1 2 100 -36977.6 0.19792
19      141.677 1 2 100 -36977.6 0.948761
20      141.677 1 2 100 -36977.6 1.6996
21      141.677 1 2 100 -36977.6 2.45044
22      141.677 1 2 100 -36977.6 3.20128
23      141.677 1 2 100 -36977.6 3.95212
24      141.677 1 2 100 -36977.6 4.70296
25      141.677 1 2 100 -36977.6 5.4538
26      141.677 1 2 100 -36977.6 6.20465
27      141.677 1 2 100 -36977.6 0.672301
28      141.677 1 2 100 -36977.6 1.42314
29      141.677 1 2 100 -36977.6 2.17398
30      141.677 1 2 100 -36977.6 2.92482
31      141.677 1 2 100 -36977.6 3.67566
32      141.677 1 2 100 -36977.6 4.4265
33      141.677 1 2 100 -36977.6 5.17734
34      141.677 1 2 100 -36977.6 5.92819
35      141.677 1 2 100 -36977.6 0.395841
36      141.677 1 2 100 -36977.6 1.14668
37      141.677 1 2 100 -493.035 0
38      141.677 1 2 100 -493.035 2.18818
39      141.677 1 2 100 -493.035 4.37636
40      141.677 1 2 100 -493.035 0.281361
41      141.677 1 2 100 -493.035 2.46954
42      141.677 1 2 100 -493.035 4.65773
43      141.677 1 2 100 -493.035 0.562722
44      141.677 1 2 100 -493.035 2.7509
45      141.677 1 2 100 -493.035 4.93909
46      141.677 1 2 100 -493.035 0.844083
47      141.677 1 2 100 -493.035 3.03227
48      141.677 1 2 100 -493.035 5.22045
49      141.677 1 2 100 -493.035 1.12544
50      141.677 1 2 100 -493.035 3.31363
51      141.677 1 2 100 -493.035 5.50181
52      141.677 1 2 100 -493.035 1.40681
53      141.677 1 2 100 -493.035 3.59499
54      141.677 1 2 100 -493.035 5.78317
55      141.677 1 2 100 -493.035 1.68817
56      141.677 1 2 100 -493.035 3.87635
57      141.677 1 2 100 -493.035 6.06453
58      141.677 1 2 100 -493.035 1.96953
59      141.677 1 2 100 -493.035 4.15771
60      141.677 1 2 100 -493.035 0.0627062
61      141.677 1 2 100 -493.035 2.25089
62      141.677 1 2 100 -493.035 4.43907
63      141.677 1 2 100 -493.035 0.344067
64      141.677 1 2 100 -493.035 2.53225
65      141.677 1 2 100 -493.035 4.72043
66      141.677 1 2 100 -493.035 0.625428
67      141.677 1 2 100 -493.035 2.81361
68      141.677 1 2 100 -493.035 5.00179
69      141.677 1 2 100 -493.035 0.906789
70      141.677 1 2 100 -493.035 3.09497
71      141.677 1 2 100 -493.035 5.28315
72      141.677 1 2 100 -493.035 1.18815
73      141.677 1 2 100 -491.802 0
74      141.677 1 2 100 -491.802 2.57541
75      141.677 1 2 100 -491.802 5.15082
76      141.677 1 2 100 -491.802 1.44305
77      141.677 1 2 100 -491.802 4.01846
78      141.677 1 2 100 -491.802 0.310683
79      141.677 1 2 100 -491.802 2.88609
80      141.677 1 2 100 -491.802 5.4615
81      141.677 1 2 100 -491.802 1.75373
82      141.677 1 2 100 -491.802 4.32914
83      141.677 1 2 100 -491.802 0.621366
84      141.677 1 2 100 -491.802 3.19678
85      141.677 1 2 100 -491.802 5.77219
86      141.677 1 2 100 -491.802 2.06441
87      141.677 1 2 100 -491.802 4.63982
88      141.677 1 2 100 -491.802 0.932049
89      141.677 1 2 100 -491.802 3.50746
90      141.677 1 2 100 -491.802 6.08287
91      141.677 1 2 100 -491.802 2.3751
92      141.677 1 2 100 -491.802 4.95051
93      141.677 1 2 100 -491.802 1.24273
94      141.677 1 2 100 -491.802 3.81814
95      141.677 1 2 100 -491.802 0.110369
96      141.677 1 2 100 -491.802 2.68578
97      141.677 1 2 100 -491.802 5.26119
98      141.677 1 2 100 -491.802 1.55342
99      141.677 1 2 100 -491.802 4.12883
100      141.677 1 2 100 -491.802 0.421052
101      141.677 1 2 100 -491.802 2.99646
102      141.677 1 2 100 -491.802 5.57187
103      141.677 1 2 100 -491.802 1.8641
104      141.677 1 2 100 -491.802 4.43951
105      141.677 1 2 100 -491.802 0.731735
106      141.677 1 2 100 -491.802 3.30715
107      141.677 1 2 100 -491.802 5.88256
108      141.677 1 2 100 -491.802 2.17478
109      141.677 1 2 100 -490.57 0
110      141.677 1 2 100 -490.57 2.96264
111      141.677 1 2 100 -490.57 5.92528
112      141.677 1 2 100 -490.57 2.60473
113      141.677 1 2 100 -490.57 5.56737
114      141.677 1 2 100 -490.57 2.24683
115      141.677 1 2 100 -490.57 5.20947
116      141.677 1 2 100 -490.57 1.88892
117      141.677 1 2 100 -490.57 4.85156
118      141.677 1 2 100 -490.57 1.53101
119      141.677 1 2 100 -490.57 4.49365
120      141.677 1 2 100 -490.57 1.17311
121      141.677 1 2 100 -490.57 4.13575
122      141.677 1 2 100 -490.57 0.8152
123      141.677 1 2 100 -490.57 3.77784
124      141.677 1 2 100 -490.57 0.457293
125      141.677 1 2 100 -490.57 3.41993
126      141.677 1 2 100 -490.57 0.0993868
127      141.677 1 2 100 -490.57 3.06203
128      141.677 1 2 100 -490.57 6.02467
129      141.677 1 2 100 -490.57 2.70412
130      141.677 1 2 100 -490.57 5.66676
131      141.677 1 2 100 -490.57 2.34621
132      141.677 1 2 100 -490.57 5.30885
133      141.677 1 2 100 -490.57 1.98831
134      141.677 1 2 100 -490.57 4.95095
135      141.677 1 2 100 -490.57 1.6304
136      141.677 1 2 100 -490.57 4.59304
137      141.677 1 2 100 -490.57 1.27249
138      141.677 1 2 100 -490.57 4.23513
139      141.677 1 2 100 -490.57 0.914587
140      141.677 1 2 100 -490.57 3.87723
141      141.677 1 2 100 -490.57 0.55668
142      141.677 1 2 100 -490.57 3.51932
143      141.677 1 2 100 -490.57 0.198774
144      141.677 1 2 100 -490.57 3.16141
145      141.677 1 2 100 -489.337 0
146      141.677 1 2 100 -489.337 3.34987
147      141.677 1 2 100 -489.337 0.416551
148      141.677 1 2 100 -489.337 3.76642
149      141.677 1 2 100 -489.337 0.833101
150      141.677 1 2 100 -489.337 4.18297
151      141.677 1 2 100 -489.337 1.24965
152      141.677 1 2 100 -489.337 4.59952
153      141.677 1 2 100 -489.337 1.6662
154      141.677 1 2 100 -489.337 5.01607
155      141.677 1 2 100 -489.337 2.08275
156      141.677 1 2 100 -489.337 5.43262
157      141.677 1 2 100 -489.337 2.4993
158      141.677 1 2 100 -489.337 5.84917
159      141.677 1 2 100 -489.337 2.91585
160      141.677 1 2 100 -489.337 6.26572
161      141.677 1 2 100 -489.337 3.33241
162      141.677 1 2 100 -489.337 0.399088
163      141.677 1 2 100 -489.337 3.74896
164      141.677 1 2 100 -489.337 0.815639
165      141.677 1 2 100 -489.337 4.16551
166      141.677 1 2 100 -489.337 1.23219
167      141.677 1 2 100 -489.337 4.58206
168      141.677 1 2 100 -489.337 1.64874
169      141.677 1 2 100 -489.337 4.99861
170      141.677 1 2 100 -489.337 2.06529
171      141.677 1 2 100 -489.337 5.41516
172      141.677 1 2 100 -489.337 2.48184
173      141.677 1 2 100 -489.337 5.83171
174      141.677 1 2 100 -489.337 2.89839
175      141.677 1 2 100 -489.337 6.24826
176      141.677 1 2 100 -489.337 3.31494
177      141.677 1 2 100 -489.337 0.381626
178      141.677 1 2 100 -489.337 3.73149
179      141.677 1 2 100 -489.337 0.798176
180      141.677 1 2 100 -489.337 4.14804
181      141.677 1 2 100 -488.104 0
182      141.677 1 2 100 -488.104 3.7371
183      141.677 1 2 100 -488.104 1.19101
184      141.677 1 2 100 -488.104 4.9281
185      141.677 1 2 100 -488.104 2.38202
186      141.677 1 2 100 -488.104 6.11911
187      141.677 1 2 100 -488.104 3.57302
188      141.677 1 2 100 -488.104 1.02694
189      141.677 1 2 100 -488.104 4.76403
190      141.677 1 2 100 -488.104 2.21794
191      141.677 1 2 100 -488.104 5.95504
192      141.677 1 2 100 -488.104 3.40895
193      141.677 1 2 100 -488.104 0.862862
194      141.677 1 2 100 -488.104 4.59996
195      141.677 1 2 100 -488.104 2.05387
196      141.677 1 2 100 -488.104 5.79097
197      141.677 1 2 100 -488.104 3.24488
198      141.677 1 2 100 -488.104 0.698789
199      141.677 1 2 100 -488.104 4.43589
200      141.677 1 2 100 -488.104 1.8898
201      141.677 1 2 100 -488.104 5.62689
202      141.677 1 2 100 -488.104 3.08081
203      141.677 1 2 100 -488.104 0.534717
204      141.677 1 2 100 -488.104 4.27181
205      141.677 1 2 100 -488.104 1.72572
206      141.677 1 2 100 -488.104 5.46282
207      141.677 1 2 100 -488.104 2.91673
208      141.677 1 2 100 -488.104 0.370644
209      141.677 1 2 100 -488.104 4.10774
210      141.677 1 2 100 -488.104 1.56165
211      141.677 1 2 100 -488.104 5.29875
212      141.677 1 2 100 -488.104 2.75266
213      141.677 1 2 100 -488.104 0.206571
214      141.677 1 2 100 -488.104 3.94367
215      141.677 1 2 100 -488.104 1.39758
216      141.677 1 2 100 -488.104 5.13468
217      141.677 1 2 100 -486.872 0
218      141.677 1 2 100 -486.872 4.12433
219      141.677 1 2 100 -486.872 1.96547
220      141.677 1 2 100 -486.872 6.08979
221      141.677 1 2 100 -486.872 3.93093
222      141.677 1 2 100 -486.872 1.77207
223      141.677 1 2 100 -486.872 5.8964
224      141.677 1 2 100 -486.872 3.73754
225      141.677 1 2 100 -486.872 1.57868
226      141.677 1 2 100 -486.872 5.703
227      141.677 1 2 100 -486.872 3.54414
228      141.677 1 2 100 -486.872 1.38528
229      141.677 1 2 100 -486.872 5.50961
230      141.677 1 2 100 -486.872 3.35075
231      141.677 1 2 100 -486.872 1.19189
232      141.677 1 2 100 -486.872 5.31621
233      141.677 1 2 100 -486.872 3.15735
234      141.677 1 2 100 -486.872 0.998491
235      141.677 1 2 100 -486.872 5.12282
236      141.677 1 2 100 -486.872 2.96396
237      141.677 1 2 100 -486.872 0.805096
238      141.677 1 2 100 -486.872 4.92942
239      141.677 1 2 100 -486.872 2.77056
240      141.677 1 2 100 -486.872 0.611701
241      141.677 1 2 100 -486.872 4.73603
242      141.677 1 2 100 -486.872 2.57717
243      141.677 1 2 100 -486.872 0.418306
244      141.677 1 2 100 -486.872 4.54263
245      141.677 1 2 100 -486.872 2.38377
246      141.677 1 2 100 -486.872 0.224911
247      141.677 1 2 100 -486.872 4.34924
248      141.677 1 2 100 -486.872 2.19038
249      141.677 1 2 100 -486.872 0.0315165
250      141.677 1 2 100 -486.872 4.15584
251      141.677 1 2 100 -486.872 1.99698
252      141.677 1 2 100 -486.872 6.12131
253      141.677 1 2 100 -485.639 0
254      141.677 1 2 100 -485.639 4.51155
255      141.677 1 2 100 -485.639 2.73992
256      141.677 1 2 100 -485.639 0.968291
257      141.677 1 2 100 -485.639 5.47984
258      141.677 1 2 100 -485.639 3.70821
259      141.677 1 2 100 -485.639 1.93658
260      141.677 1 2 100 -485.639 0.164951
261      141.677 1 2 100 -485.639 4.6765
262      141.677 1 2 100 -485.639 2.90487
263      141.677 1 2 100 -485.639 1.13324
264      141.677 1 2 100 -485.639 5.6448
265      141.677 1 2 100 -485.639 3.87316
266      141.677 1 2 100 -485.639 2.10153
267      141.677 1 2 100 -485.639 0.329901
268      141.677 1 2 100 -485.639 4.84146
269      141.677 1 2 100 -485.639 3.06982
270      141.677 1 2 100 -485.639 1.29819
271      141.677 1 2 100 -485.639 5.80975
272      141.677 1 2 100 -485.639 4.03811
273      141.677 1 2 100 -485.639 2.26648
274      141.677 1 2 100 -485.639 0.494852
275      141.677 1 2 100 -485.639 5.00641
276      141.677 1 2 100 -485.639 3.23477
277      141.677 1 2 100 -485.639 1.46314
278      141.677 1 2 100 -485.639 5.9747
279      141.677 1 2 100 -485.639 4.20307
280      141.677 1 2 100 -485.639 2.43143
281      141.677 1 2 100 -485.639 0.659802
282      141.677 1 2 100 -485.639 5.17136
283      141.677 1 2 100 -485.639 3.39972
284      141.677 1 2 100 -485.639 1.62809
285      141.677 1 2 100 -485.639 6.13965
286      141.677 1 2 100 -485.639 4.36802
287      141.677 1 2 100 -485.639 2.59638
288      141.677 1 2 100 -485.639 0.824753
289      141.677 1 2 100 -484.407 0
290      141.677 1 2 100 -484.407 4.89878
291      141.677 1 2 100 -484.407 3.51438
292      141.677 1 2 100 -484.407 2.12998
293      141.677 1 2 100 -484.407 0.745574
294      141.677 1 2 100 -484.407 5.64436
295      141.677 1 2 100 -484.407 4.25995
296      141.677 1 2 100 -484.407 2.87555
297      141.677 1 2 100 -484.407 1.49115
298      141.677 1 2 100 -484.407 0.106745
299      141.677 1 2 100 -484.407 5.00553
300      141.677 1 2 100 -484.407 3.62113
301      141.677 1 2 100 -484.407 2.23672
302      141.677 1 2 100 -484.407 0.852319
303      141.677 1 2 100 -484.407 5.7511
304      141.677 1 2 100 -484.407 4.3667
305      141.677 1 2 100 -484.407 2.9823
306      141.677 1 2 100 -484.407 1.59789
307      141.677 1 2 100 -484.407 0.213491
308      141.677 1 2 100 -484.407 5.11227
309      141.677 1 2 100 -484.407 3.72787
310      141.677 1 2 100 -484.407 2.34347
311      141.677 1 2 100 -484.407 0.959065
312      141.677 1 2 100 -484.407 5.85785
313      141.677 1 2 100 -484.407 4.47344
314      141.677 1 2 100 -484.407 3.08904
315      141.677 1 2 100 -484.407 1.70464
316      141.677 1 2 100 -484.407 0.320236
317      141.677 1 2 100 -484.407 5.21902
318      141.677 1 2 100 -484.407 3.83462
319      141.677 1 2 100 -484.407 2.45021
320      141.677 1 2 100 -484.407 1.06581
321      141.677 1 2 100 -484.407 5.96459
322      141.677 1 2 100 -484.407 4.58019
323      141.677 1 2 100 -484.407 3.19579
324      141.677 1 2 100 -484.407 1.81138
325      141.677 1 2 100 -483.174 0
326      141.677 1 2 100 -483.174 5.28601
327      141.677 1 2 100 -483.174 4.28884
328      141.677 1 2 100 -483.174 3.29166
329      141.677 1 2 100 -483.174 2.29449
330      141.677 1 2 100 -483.174 1.29731
331      141.677 1 2 100 -483.174 0.30014
332      141.677 1 2 100 -483.174 5.58615
333      141.677 1 2 100 -483.174 4.58898
334      141.677 1 2 100 -483.174 3.5918
335      141.677 1 2 100 -483.174 2.59463
336      141.677 1 2 100 -483.174 1.59745
337      141.677 1 2 100 -483.174 0.60028
338      141.677 1 2 100 -483.174 5.88629
339      141.677 1 2 100 -483.174 4.88912
340      141.677 1 2 100 -483.174 3.89194
341      141.677 1 2 100 -483.174 2.89477
342      141.677 1 2 100 -483.174 1.89759
343      141.677 1 2 100 -483.174 0.900421
344      141.677 1 2 100 -483.174 6.18643
345      141.677 1 2 100 -483.174 5.18926
346      141.677 1 2 100 -483.174 4.19208
347      141.677 1 2 100 -483.174 3.19491
348      141.677 1 2 100 -483.174 2.19774
349      141.677 1 2 100 -483.174 1.20056
350      141.677 1 2 100 -483.174 0.203387
351      141.677 1 2 100 -483.174 5.4894
352      141.677 1 2 100 -483.174 4.49222
353      141.677 1 2 100 -483.174 3.49505
354      141.677 1 2 100 -483.174 2.49788
355      141.677 1 2 100 -483.174 1.5007
356      141.677 1 2 100 -483.174 0.503527
357      141.677 1 2 100 -483.174 5.78954
358      141.677 1 2 100 -483.174 4.79236
359      141.677 1 2 100 -483.174 3.79519
360      141.677 1 2 100 -483.174 2.79802
361      141.677 1 2 100 -481.942 0
362      141.677 1 2 100 -481.942 5.67324
363      141.677 1 2 100 -481.942 5.06329
364      141.677 1 2 100 -481.942 4.45335
365      141.677 1 2 100 -481.942 3.8434
366      141.677 1 2 100 -481.942 3.23346
367      141.677 1 2 100 -481.942 2.62351
368      141.677 1 2 100 -481.942 2.01357
369      141.677 1 2 100 -481.942 1.40362
370      141.677 1 2 100 -481.942 0.793675
371      141.677 1 2 100 -481.942 0.18373
372      141.677 1 2 100 -481.942 5.85697
373      141.677 1 2 100 -481.942 5.24702
374      141.677 1 2 100 -481.942 4.63708
375      141.677 1 2 100 -481.942 4.02713
376      141.677 1 2 100 -481.942 3.41719
377      141.677 1 2 100 -481.942 2.80724
378      141.677 1 2 100 -481.942 2.1973
379      141.677 1 2 100 -481.942 1.58735
380      141.677 1 2 100 -481.942 0.977405
381      141.677 1 2 100 -481.942 0.36746
382      141.677 1 2 100 -481.942 6.0407
383      141.677 1 2 100 -481.942 5.43075
384      141.677 1 2 100 -481.942 4.82081
385      141.677 1 2 100 -481.942 4.21086
386      141.677 1 2 100 -481.942 3.60092
387      141.677 1 2 100 -481.942 2.99097
388      141.677 1 2 100 -481.942 2.38103
389      141.677 1 2 100 -481.942 1.77108
390      141.677 1 2 100 -481.942 1.16113
391      141.677 1 2 100 -481.942 0.551189
392      141.677 1 2 100 -481.942 6.22443
393      141.677 1 2 100 -481.942 5.61448
394      141.677 1 2 100 -481.942 5.00454
395      141.677 1 2 100 -481.942 4.39459
396      141.677 1 2 100 -481.942 3.78465
397      141.677 1 2 100 -480.709 0
398      141.677 1 2 100 -480.709 6.06047
399      141.677 1 2 100 -480.709 5.83775
400      141.677 1 2 100 -480.709 5.61503
401      141.677 1 2 100 -480.709 5.39232
402      141.677 1 2 100 -480.709 5.1696
403      141.677 1 2 100 -480.709 4.94688
404      141.677 1 2 100 -480.709 4.72417
405      141.677 1 2 100 -480.709 4.50145
406      141.677 1 2 100 -480.709 4.27873
407      141.677 1 2 100 -480.709 4.05602
408      141.677 1 2 100 -480.709 3.8333
409      141.677 1 2 100 -480.709 3.61058
410      141.677 1 2 100 -480.709 3.38787
411      141.677 1 2 100 -480.709 3.16515
412      141.677 1 2 100 -480.709 2.94243
413      141.677 1 2 100 -480.709 2.71971
414      141.677 1 2 100 -480.709 2.497
415      141.677 1 2 100 -480.709 2.27428
416      141.677 1 2 100 -480.709 2.05156
417      141.677 1 2 100 -480.709 1.82885
418      141.677 1 2 100 -480.709 1.60613
419      141.677 1 2 100 -480.709 1.38341
420      141.677 1 2 100 -480.709 1.1607
421      141.677 1 2 100 -480.709 0.937979
422      141.677 1 2 100 -480.709 0.715262
423      141.677 1 2 100 -480.709 0.492545
424      141.677 1 2 100 -480.709 0.269828
425      141.677 1 2 100 -480.709 0.0471113
426      141.677 1 2 100 -480.709 6.10758
427      141.677 1 2 100 -480.709 5.88486
428      141.677 1 2 100 -480.709 5.66215
429      141.677 1 2 100 -480.709 5.43943
430      141.677 1 2 100 -480.709 5.21671
431      141.677 1 2 100 -480.709 4.994
432      141.677 1 2 100 -480.709 4.77128
433      141.677 1 2 100 -479.476 0
434      141.677 1 2 100 -479.476 0.164512
435      141.677 1 2 100 -479.476 0.329023
436      141.677 1 2 100 -479.476 0.493535
437      141.677 1 2 100 -479.476 0.658047
438      141.677 1 2 100 -479.476 0.822558
439      141.677 1 2 100 -479.476 0.98707
440      141.677 1 2 100 -479.476 1.15158
441      141.677 1 2 100 -479.476 1.31609
442      141.677 1 2 100 -479.476 1.48061
443      141.677 1 2 100 -479.476 1.64512
444      141.677 1 2 100 -479.476 1.80963
445      141.677 1 2 100 -479.476 1.97414
446      141.677 1 2 100 -479.476 2.13865
447      141.677 1 2 100 -479.476 2.30316
448      141.677 1 2 100 -479.476 2.46768
449      141.677 1 2 100 -479.476 2.63219
450      141.677 1 2 100 -479.476 2.7967
451      141.677 1 2 100 -479.476 2.96121
452      141.677 1 2 100 -479.476 3.12572
453      141.677 1 2 100 -479.476 3.29023
454      141.677 1 2 100 -479.476 3.45475
455      141.677 1 2 100 -479.476 3.61926
456      141.677 1 2 100 -479.476 3.78377
457      141.677 1 2 100 -479.476 3.94828
458      141.677 1 2 100 -479.476 4.11279
459      141.677 1 2 100 -479.476 4.2773
460      141.677 1 2 100 -479.476 4.44182
461      141.677 1 2 100 -479.476 4.60633
462      141.677 1 2 100 -479.476 4.77084
463      141.677 1 2 100 -479.476 4.93535
464      141.677 1 2 100 -479.476 5.09986
465      141.677 1 2 100 -479.476 5.26437
466      141.677 1 2 100 -479.476 5.42889
467      141.677 1 2 100 -479.476 5.5934
468      141.677 1 2 100 -479.476 5.75791
469      141.677 1 2 100 -478.244 0
470      141.677 1 2 100 -478.244 0.55174
471      141.677 1 2 100 -478.244 1.10348
472      141.677 1 2 100 -478.244 1.65522
473      141.677 1 2 100 -478.244 2.20696
474      141.677 1 2 100 -478.244 2.7587
475      141.677 1 2 100 -478.244 3.31044
476      141.677 1 2 100 -478.244 3.86218
477      141.677 1 2 100 -478.244 4.41392
478      141.677 1 2 100 -478.244 4.96566
479      141.677 1 2 100 -478.244 5.5174
480      141.677 1 2 100 -478.244 6.06914
