# Pulseq sequence file
# Created by MATLAB mr toolbox

# Created for Pulseq-CEST
# https://pulseq-cest.github.io/
# Created by: Kai Herz
# Created at: 28-Nov-2023 16:43:09

[VERSION]
major 1
minor 3
revision 1

[DEFINITIONS]
B0 2.89500052 
B1pa 1.78 
B1rms 1.99620497 
DCsat 0.909090909 
FREQ 123.2587 
M0_offset -300 
Trec 3.5 
Trec_M0 3.5 
Tsat 1.975 
n_pulses 36 
num_meas 82 
offsets_ppm -300 -4 -3.9 -3.8 -3.7 -3.6 -3.5 -3.4 -3.3 -3.2 -3.1 -3 -2.9 -2.8 -2.7 -2.6 -2.5 -2.4 -2.3 -2.2 -2.1 -2 -1.9 -1.8 -1.7 -1.6 -1.5 -1.4 -1.3 -1.2 -1.1 -1 -0.9 -0.8 -0.7 -0.6 -0.5 -0.4 -0.3 -0.2 -0.1 0 0.1 0.2 0.3 0.4 0.5 0.6 0.7 0.8 0.9 1 1.1 1.2 1.3 1.4 1.5 1.6 1.7 1.8 1.9 2 2.1 2.2 2.3 2.4 2.5 2.6 2.7 2.8 2.9 3 3.1 3.2 3.3 3.4 3.5 3.6 3.7 3.8 3.9 4 
seq_id_string  
spoiling 1 
td 0.005 
tp 0.05 

# Format of blocks:
#  #  D RF  GX  GY  GZ ADC EXT
[BLOCKS]
   1  1  0   0   0   0  0  0
   2  0  1   0   0   0  0  0
   3  2  0   0   0   0  0  0
   4  0  2   0   0   0  0  0
   5  2  0   0   0   0  0  0
   6  0  3   0   0   0  0  0
   7  2  0   0   0   0  0  0
   8  0  4   0   0   0  0  0
   9  2  0   0   0   0  0  0
  10  0  5   0   0   0  0  0
  11  2  0   0   0   0  0  0
  12  0  6   0   0   0  0  0
  13  2  0   0   0   0  0  0
  14  0  7   0   0   0  0  0
  15  2  0   0   0   0  0  0
  16  0  8   0   0   0  0  0
  17  2  0   0   0   0  0  0
  18  0  9   0   0   0  0  0
  19  2  0   0   0   0  0  0
  20  0 10   0   0   0  0  0
  21  2  0   0   0   0  0  0
  22  0 11   0   0   0  0  0
  23  2  0   0   0   0  0  0
  24  0 12   0   0   0  0  0
  25  2  0   0   0   0  0  0
  26  0 13   0   0   0  0  0
  27  2  0   0   0   0  0  0
  28  0 14   0   0   0  0  0
  29  2  0   0   0   0  0  0
  30  0 15   0   0   0  0  0
  31  2  0   0   0   0  0  0
  32  0 16   0   0   0  0  0
  33  2  0   0   0   0  0  0
  34  0 17   0   0   0  0  0
  35  2  0   0   0   0  0  0
  36  0 18   0   0   0  0  0
  37  2  0   0   0   0  0  0
  38  0 19   0   0   0  0  0
  39  2  0   0   0   0  0  0
  40  0 20   0   0   0  0  0
  41  2  0   0   0   0  0  0
  42  0 21   0   0   0  0  0
  43  2  0   0   0   0  0  0
  44  0 22   0   0   0  0  0
  45  2  0   0   0   0  0  0
  46  0 23   0   0   0  0  0
  47  2  0   0   0   0  0  0
  48  0 24   0   0   0  0  0
  49  2  0   0   0   0  0  0
  50  0 25   0   0   0  0  0
  51  2  0   0   0   0  0  0
  52  0 26   0   0   0  0  0
  53  2  0   0   0   0  0  0
  54  0 27   0   0   0  0  0
  55  2  0   0   0   0  0  0
  56  0 28   0   0   0  0  0
  57  2  0   0   0   0  0  0
  58  0 29   0   0   0  0  0
  59  2  0   0   0   0  0  0
  60  0 30   0   0   0  0  0
  61  2  0   0   0   0  0  0
  62  0 31   0   0   0  0  0
  63  2  0   0   0   0  0  0
  64  0 32   0   0   0  0  0
  65  2  0   0   0   0  0  0
  66  0 33   0   0   0  0  0
  67  2  0   0   0   0  0  0
  68  0 34   0   0   0  0  0
  69  2  0   0   0   0  0  0
  70  0 35   0   0   0  0  0
  71  2  0   0   0   0  0  0
  72  0 36   0   0   0  0  0
  73  0  0   1   1   1  0  0
  74  0  0   0   0   0  1  0
  75  1  0   0   0   0  0  0
  76  0 37   0   0   0  0  0
  77  2  0   0   0   0  0  0
  78  0 38   0   0   0  0  0
  79  2  0   0   0   0  0  0
  80  0 39   0   0   0  0  0
  81  2  0   0   0   0  0  0
  82  0 40   0   0   0  0  0
  83  2  0   0   0   0  0  0
  84  0 41   0   0   0  0  0
  85  2  0   0   0   0  0  0
  86  0 42   0   0   0  0  0
  87  2  0   0   0   0  0  0
  88  0 43   0   0   0  0  0
  89  2  0   0   0   0  0  0
  90  0 44   0   0   0  0  0
  91  2  0   0   0   0  0  0
  92  0 45   0   0   0  0  0
  93  2  0   0   0   0  0  0
  94  0 46   0   0   0  0  0
  95  2  0   0   0   0  0  0
  96  0 47   0   0   0  0  0
  97  2  0   0   0   0  0  0
  98  0 48   0   0   0  0  0
  99  2  0   0   0   0  0  0
 100  0 49   0   0   0  0  0
 101  2  0   0   0   0  0  0
 102  0 50   0   0   0  0  0
 103  2  0   0   0   0  0  0
 104  0 51   0   0   0  0  0
 105  2  0   0   0   0  0  0
 106  0 52   0   0   0  0  0
 107  2  0   0   0   0  0  0
 108  0 53   0   0   0  0  0
 109  2  0   0   0   0  0  0
 110  0 54   0   0   0  0  0
 111  2  0   0   0   0  0  0
 112  0 55   0   0   0  0  0
 113  2  0   0   0   0  0  0
 114  0 56   0   0   0  0  0
 115  2  0   0   0   0  0  0
 116  0 57   0   0   0  0  0
 117  2  0   0   0   0  0  0
 118  0 58   0   0   0  0  0
 119  2  0   0   0   0  0  0
 120  0 59   0   0   0  0  0
 121  2  0   0   0   0  0  0
 122  0 60   0   0   0  0  0
 123  2  0   0   0   0  0  0
 124  0 61   0   0   0  0  0
 125  2  0   0   0   0  0  0
 126  0 62   0   0   0  0  0
 127  2  0   0   0   0  0  0
 128  0 63   0   0   0  0  0
 129  2  0   0   0   0  0  0
 130  0 64   0   0   0  0  0
 131  2  0   0   0   0  0  0
 132  0 65   0   0   0  0  0
 133  2  0   0   0   0  0  0
 134  0 66   0   0   0  0  0
 135  2  0   0   0   0  0  0
 136  0 67   0   0   0  0  0
 137  2  0   0   0   0  0  0
 138  0 68   0   0   0  0  0
 139  2  0   0   0   0  0  0
 140  0 69   0   0   0  0  0
 141  2  0   0   0   0  0  0
 142  0 70   0   0   0  0  0
 143  2  0   0   0   0  0  0
 144  0 71   0   0   0  0  0
 145  2  0   0   0   0  0  0
 146  0 72   0   0   0  0  0
 147  0  0   1   1   1  0  0
 148  0  0   0   0   0  1  0
 149  1  0   0   0   0  0  0
 150  0 73   0   0   0  0  0
 151  2  0   0   0   0  0  0
 152  0 74   0   0   0  0  0
 153  2  0   0   0   0  0  0
 154  0 75   0   0   0  0  0
 155  2  0   0   0   0  0  0
 156  0 76   0   0   0  0  0
 157  2  0   0   0   0  0  0
 158  0 77   0   0   0  0  0
 159  2  0   0   0   0  0  0
 160  0 78   0   0   0  0  0
 161  2  0   0   0   0  0  0
 162  0 79   0   0   0  0  0
 163  2  0   0   0   0  0  0
 164  0 80   0   0   0  0  0
 165  2  0   0   0   0  0  0
 166  0 81   0   0   0  0  0
 167  2  0   0   0   0  0  0
 168  0 82   0   0   0  0  0
 169  2  0   0   0   0  0  0
 170  0 83   0   0   0  0  0
 171  2  0   0   0   0  0  0
 172  0 84   0   0   0  0  0
 173  2  0   0   0   0  0  0
 174  0 85   0   0   0  0  0
 175  2  0   0   0   0  0  0
 176  0 86   0   0   0  0  0
 177  2  0   0   0   0  0  0
 178  0 87   0   0   0  0  0
 179  2  0   0   0   0  0  0
 180  0 88   0   0   0  0  0
 181  2  0   0   0   0  0  0
 182  0 89   0   0   0  0  0
 183  2  0   0   0   0  0  0
 184  0 90   0   0   0  0  0
 185  2  0   0   0   0  0  0
 186  0 91   0   0   0  0  0
 187  2  0   0   0   0  0  0
 188  0 92   0   0   0  0  0
 189  2  0   0   0   0  0  0
 190  0 93   0   0   0  0  0
 191  2  0   0   0   0  0  0
 192  0 94   0   0   0  0  0
 193  2  0   0   0   0  0  0
 194  0 95   0   0   0  0  0
 195  2  0   0   0   0  0  0
 196  0 96   0   0   0  0  0
 197  2  0   0   0   0  0  0
 198  0 97   0   0   0  0  0
 199  2  0   0   0   0  0  0
 200  0 98   0   0   0  0  0
 201  2  0   0   0   0  0  0
 202  0 99   0   0   0  0  0
 203  2  0   0   0   0  0  0
 204  0 100   0   0   0  0  0
 205  2  0   0   0   0  0  0
 206  0 101   0   0   0  0  0
 207  2  0   0   0   0  0  0
 208  0 102   0   0   0  0  0
 209  2  0   0   0   0  0  0
 210  0 103   0   0   0  0  0
 211  2  0   0   0   0  0  0
 212  0 104   0   0   0  0  0
 213  2  0   0   0   0  0  0
 214  0 105   0   0   0  0  0
 215  2  0   0   0   0  0  0
 216  0 106   0   0   0  0  0
 217  2  0   0   0   0  0  0
 218  0 107   0   0   0  0  0
 219  2  0   0   0   0  0  0
 220  0 108   0   0   0  0  0
 221  0  0   1   1   1  0  0
 222  0  0   0   0   0  1  0
 223  1  0   0   0   0  0  0
 224  0 109   0   0   0  0  0
 225  2  0   0   0   0  0  0
 226  0 110   0   0   0  0  0
 227  2  0   0   0   0  0  0
 228  0 111   0   0   0  0  0
 229  2  0   0   0   0  0  0
 230  0 112   0   0   0  0  0
 231  2  0   0   0   0  0  0
 232  0 113   0   0   0  0  0
 233  2  0   0   0   0  0  0
 234  0 114   0   0   0  0  0
 235  2  0   0   0   0  0  0
 236  0 115   0   0   0  0  0
 237  2  0   0   0   0  0  0
 238  0 116   0   0   0  0  0
 239  2  0   0   0   0  0  0
 240  0 117   0   0   0  0  0
 241  2  0   0   0   0  0  0
 242  0 118   0   0   0  0  0
 243  2  0   0   0   0  0  0
 244  0 119   0   0   0  0  0
 245  2  0   0   0   0  0  0
 246  0 120   0   0   0  0  0
 247  2  0   0   0   0  0  0
 248  0 121   0   0   0  0  0
 249  2  0   0   0   0  0  0
 250  0 122   0   0   0  0  0
 251  2  0   0   0   0  0  0
 252  0 123   0   0   0  0  0
 253  2  0   0   0   0  0  0
 254  0 124   0   0   0  0  0
 255  2  0   0   0   0  0  0
 256  0 125   0   0   0  0  0
 257  2  0   0   0   0  0  0
 258  0 126   0   0   0  0  0
 259  2  0   0   0   0  0  0
 260  0 127   0   0   0  0  0
 261  2  0   0   0   0  0  0
 262  0 128   0   0   0  0  0
 263  2  0   0   0   0  0  0
 264  0 129   0   0   0  0  0
 265  2  0   0   0   0  0  0
 266  0 130   0   0   0  0  0
 267  2  0   0   0   0  0  0
 268  0 131   0   0   0  0  0
 269  2  0   0   0   0  0  0
 270  0 132   0   0   0  0  0
 271  2  0   0   0   0  0  0
 272  0 133   0   0   0  0  0
 273  2  0   0   0   0  0  0
 274  0 134   0   0   0  0  0
 275  2  0   0   0   0  0  0
 276  0 135   0   0   0  0  0
 277  2  0   0   0   0  0  0
 278  0 136   0   0   0  0  0
 279  2  0   0   0   0  0  0
 280  0 137   0   0   0  0  0
 281  2  0   0   0   0  0  0
 282  0 138   0   0   0  0  0
 283  2  0   0   0   0  0  0
 284  0 139   0   0   0  0  0
 285  2  0   0   0   0  0  0
 286  0 140   0   0   0  0  0
 287  2  0   0   0   0  0  0
 288  0 141   0   0   0  0  0
 289  2  0   0   0   0  0  0
 290  0 142   0   0   0  0  0
 291  2  0   0   0   0  0  0
 292  0 143   0   0   0  0  0
 293  2  0   0   0   0  0  0
 294  0 144   0   0   0  0  0
 295  0  0   1   1   1  0  0
 296  0  0   0   0   0  1  0
 297  1  0   0   0   0  0  0
 298  0 145   0   0   0  0  0
 299  2  0   0   0   0  0  0
 300  0 146   0   0   0  0  0
 301  2  0   0   0   0  0  0
 302  0 147   0   0   0  0  0
 303  2  0   0   0   0  0  0
 304  0 148   0   0   0  0  0
 305  2  0   0   0   0  0  0
 306  0 149   0   0   0  0  0
 307  2  0   0   0   0  0  0
 308  0 150   0   0   0  0  0
 309  2  0   0   0   0  0  0
 310  0 151   0   0   0  0  0
 311  2  0   0   0   0  0  0
 312  0 152   0   0   0  0  0
 313  2  0   0   0   0  0  0
[RF]
1      141.677 1 2 100 -36977.6 0
2      141.677 1 2 100 -36977.6 0.750841
3      141.677 1 2 100 -36977.6 1.50168
4      141.677 1 2 100 -36977.6 2.25252
5      141.677 1 2 100 -36977.6 3.00336
6      141.677 1 2 100 -36977.6 3.7542
7      141.677 1 2 100 -36977.6 4.50504
8      141.677 1 2 100 -36977.6 5.25588
9      141.677 1 2 100 -36977.6 6.00673
10      141.677 1 2 100 -36977.6 0.47438
11      141.677 1 2 100 -36977.6 1.22522
12      141.677 1 2 100 -36977.6 1.97606
13      141.677 1 2 100 -36977.6 2.7269
14      141.677 1 2 100 -36977.6 3.47774
15      141.677 1 2 100 -36977.6 4.22858
16      141.677 1 2 100 -36977.6 4.97942
17      141.677 1 2 100 -36977.6 5.73027
18      141.677 1 2 100 -36977.6 0.19792
19      141.677 1 2 100 -36977.6 0.948761
20      141.677 1 2 100 -36977.6 1.6996
21      141.677 1 2 100 -36977.6 2.45044
22      141.677 1 2 100 -36977.6 3.20128
23      141.677 1 2 100 -36977.6 3.95212
24      141.677 1 2 100 -36977.6 4.70296
25      141.677 1 2 100 -36977.6 5.4538
26      141.677 1 2 100 -36977.6 6.20465
27      141.677 1 2 100 -36977.6 0.672301
28      141.677 1 2 100 -36977.6 1.42314
29      141.677 1 2 100 -36977.6 2.17398
30      141.677 1 2 100 -36977.6 2.92482
31      141.677 1 2 100 -36977.6 3.67566
32      141.677 1 2 100 -36977.6 4.4265
33      141.677 1 2 100 -36977.6 5.17734
34      141.677 1 2 100 -36977.6 5.92819
35      141.677 1 2 100 -36977.6 0.395841
36      141.677 1 2 100 -36977.6 1.14668
37      141.677 1 2 100 -493.035 0
38      141.677 1 2 100 -493.035 2.18818
39      141.677 1 2 100 -493.035 4.37636
40      141.677 1 2 100 -493.035 0.281361
41      141.677 1 2 100 -493.035 2.46954
42      141.677 1 2 100 -493.035 4.65773
43      141.677 1 2 100 -493.035 0.562722
44      141.677 1 2 100 -493.035 2.7509
45      141.677 1 2 100 -493.035 4.93909
46      141.677 1 2 100 -493.035 0.844083
47      141.677 1 2 100 -493.035 3.03227
48      141.677 1 2 100 -493.035 5.22045
49      141.677 1 2 100 -493.035 1.12544
50      141.677 1 2 100 -493.035 3.31363
51      141.677 1 2 100 -493.035 5.50181
52      141.677 1 2 100 -493.035 1.40681
53      141.677 1 2 100 -493.035 3.59499
54      141.677 1 2 100 -493.035 5.78317
55      141.677 1 2 100 -493.035 1.68817
56      141.677 1 2 100 -493.035 3.87635
57      141.677 1 2 100 -493.035 6.06453
58      141.677 1 2 100 -493.035 1.96953
59      141.677 1 2 100 -493.035 4.15771
60      141.677 1 2 100 -493.035 0.0627062
61      141.677 1 2 100 -493.035 2.25089
62      141.677 1 2 100 -493.035 4.43907
63      141.677 1 2 100 -493.035 0.344067
64      141.677 1 2 100 -493.035 2.53225
65      141.677 1 2 100 -493.035 4.72043
66      141.677 1 2 100 -493.035 0.625428
67      141.677 1 2 100 -493.035 2.81361
68      141.677 1 2 100 -493.035 5.00179
69      141.677 1 2 100 -493.035 0.906789
70      141.677 1 2 100 -493.035 3.09497
71      141.677 1 2 100 -493.035 5.28315
72      141.677 1 2 100 -493.035 1.18815
73      141.677 1 2 100 -480.709 0
74      141.677 1 2 100 -480.709 6.06047
75      141.677 1 2 100 -480.709 5.83775
76      141.677 1 2 100 -480.709 5.61503
77      141.677 1 2 100 -480.709 5.39232
78      141.677 1 2 100 -480.709 5.1696
79      141.677 1 2 100 -480.709 4.94688
80      141.677 1 2 100 -480.709 4.72417
81      141.677 1 2 100 -480.709 4.50145
82      141.677 1 2 100 -480.709 4.27873
83      141.677 1 2 100 -480.709 4.05602
84      141.677 1 2 100 -480.709 3.8333
85      141.677 1 2 100 -480.709 3.61058
86      141.677 1 2 100 -480.709 3.38787
87      141.677 1 2 100 -480.709 3.16515
88      141.677 1 2 100 -480.709 2.94243
89      141.677 1 2 100 -480.709 2.71971
90      141.677 1 2 100 -480.709 2.497
91      141.677 1 2 100 -480.709 2.27428
92      141.677 1 2 100 -480.709 2.05156
93      141.677 1 2 100 -480.709 1.82885
94      141.677 1 2 100 -480.709 1.60613
95      141.677 1 2 100 -480.709 1.38341
96      141.677 1 2 100 -480.709 1.1607
97      141.677 1 2 100 -480.709 0.937979
98      141.677 1 2 100 -480.709 0.715262
99      141.677 1 2 100 -480.709 0.492545
100      141.677 1 2 100 -480.709 0.269828
101      141.677 1 2 100 -480.709 0.0471113
102      141.677 1 2 100 -480.709 6.10758
103      141.677 1 2 100 -480.709 5.88486
104      141.677 1 2 100 -480.709 5.66215
105      141.677 1 2 100 -480.709 5.43943
106      141.677 1 2 100 -480.709 5.21671
107      141.677 1 2 100 -480.709 4.994
108      141.677 1 2 100 -480.709 4.77128
109      141.677 1 2 100 -468.383 0
110      141.677 1 2 100 -468.383 3.64957
111      141.677 1 2 100 -468.383 1.01595
112      141.677 1 2 100 -468.383 4.66552
113      141.677 1 2 100 -468.383 2.03191
114      141.677 1 2 100 -468.383 5.68148
115      141.677 1 2 100 -468.383 3.04786
116      141.677 1 2 100 -468.383 0.414244
117      141.677 1 2 100 -468.383 4.06381
118      141.677 1 2 100 -468.383 1.4302
119      141.677 1 2 100 -468.383 5.07977
120      141.677 1 2 100 -468.383 2.44615
121      141.677 1 2 100 -468.383 6.09572
122      141.677 1 2 100 -468.383 3.4621
123      141.677 1 2 100 -468.383 0.828488
124      141.677 1 2 100 -468.383 4.47806
125      141.677 1 2 100 -468.383 1.84444
126      141.677 1 2 100 -468.383 5.49401
127      141.677 1 2 100 -468.383 2.86039
128      141.677 1 2 100 -468.383 0.226779
129      141.677 1 2 100 -468.383 3.87635
130      141.677 1 2 100 -468.383 1.24273
131      141.677 1 2 100 -468.383 4.8923
132      141.677 1 2 100 -468.383 2.25869
133      141.677 1 2 100 -468.383 5.90826
134      141.677 1 2 100 -468.383 3.27464
135      141.677 1 2 100 -468.383 0.641023
136      141.677 1 2 100 -468.383 4.29059
137      141.677 1 2 100 -468.383 1.65698
138      141.677 1 2 100 -468.383 5.30655
139      141.677 1 2 100 -468.383 2.67293
140      141.677 1 2 100 -468.383 0.0393139
141      141.677 1 2 100 -468.383 3.68888
142      141.677 1 2 100 -468.383 1.05527
143      141.677 1 2 100 -468.383 4.70484
144      141.677 1 2 100 -468.383 2.07122
145      141.677 1 2 100 -456.057 0
146      141.677 1 2 100 -456.057 1.23867
147      141.677 1 2 100 -456.057 2.47734
148      141.677 1 2 100 -456.057 3.71601
149      141.677 1 2 100 -456.057 4.95468
150      141.677 1 2 100 -456.057 6.19335
151      141.677 1 2 100 -456.057 1.14884
152      141.677 1 2 100 -456.057 2.38751
153      141.677 1 2 100 -456.057 3.62618
154      141.677 1 2 100 -456.057 4.86485
155      141.677 1 2 100 -456.057 6.10352
156      141.677 1 2 100 -456.057 1.059
157      141.677 1 2 100 -456.057 2.29767
158      141.677 1 2 100 -456.057 3.53634
159      141.677 1 2 100 -456.057 4.77501
160      141.677 1 2 100 -456.057 6.01368
161      141.677 1 2 100 -456.057 0.969169
162      141.677 1 2 100 -456.057 2.20784
163      141.677 1 2 100 -456.057 3.44651
164      141.677 1 2 100 -456.057 4.68518
165      141.677 1 2 100 -456.057 5.92385
166      141.677 1 2 100 -456.057 0.879335
167      141.677 1 2 100 -456.057 2.11801
168      141.677 1 2 100 -456.057 3.35668
169      141.677 1 2 100 -456.057 4.59535
170      141.677 1 2 100 -456.057 5.83402
171      141.677 1 2 100 -456.057 0.789501
172      141.677 1 2 100 -456.057 2.02817
173      141.677 1 2 100 -456.057 3.26684
174      141.677 1 2 100 -456.057 4.50551
175      141.677 1 2 100 -456.057 5.74418
176      141.677 1 2 100 -456.057 0.699667
177      141.677 1 2 100 -456.057 1.93834
178      141.677 1 2 100 -456.057 3.17701
179      141.677 1 2 100 -456.057 4.41568
180      141.677 1 2 100 -456.057 5.65435
181      141.677 1 2 100 -443.731 0
182      141.677 1 2 100 -443.731 5.11096
183      141.677 1 2 100 -443.731 3.93873
184      141.677 1 2 100 -443.731 2.7665
185      141.677 1 2 100 -443.731 1.59427
186      141.677 1 2 100 -443.731 0.422042
187      141.677 1 2 100 -443.731 5.533
188      141.677 1 2 100 -443.731 4.36077
189      141.677 1 2 100 -443.731 3.18854
190      141.677 1 2 100 -443.731 2.01631
191      141.677 1 2 100 -443.731 0.844083
192      141.677 1 2 100 -443.731 5.95504
193      141.677 1 2 100 -443.731 4.78281
194      141.677 1 2 100 -443.731 3.61058
195      141.677 1 2 100 -443.731 2.43835
196      141.677 1 2 100 -443.731 1.26612
197      141.677 1 2 100 -443.731 0.0938959
198      141.677 1 2 100 -443.731 5.20485
199      141.677 1 2 100 -443.731 4.03262
200      141.677 1 2 100 -443.731 2.86039
201      141.677 1 2 100 -443.731 1.68817
202      141.677 1 2 100 -443.731 0.515937
203      141.677 1 2 100 -443.731 5.62689
204      141.677 1 2 100 -443.731 4.45467
205      141.677 1 2 100 -443.731 3.28244
206      141.677 1 2 100 -443.731 2.11021
207      141.677 1 2 100 -443.731 0.937979
208      141.677 1 2 100 -443.731 6.04894
209      141.677 1 2 100 -443.731 4.87671
210      141.677 1 2 100 -443.731 3.70448
211      141.677 1 2 100 -443.731 2.53225
212      141.677 1 2 100 -443.731 1.36002
213      141.677 1 2 100 -443.731 0.187792
214      141.677 1 2 100 -443.731 5.29875
215      141.677 1 2 100 -443.731 4.12652
216      141.677 1 2 100 -443.731 2.95429
217      141.677 1 2 100 -431.405 0
218      141.677 1 2 100 -431.405 2.70006
219      141.677 1 2 100 -431.405 5.40012
220      141.677 1 2 100 -431.405 1.81699
221      141.677 1 2 100 -431.405 4.51704
222      141.677 1 2 100 -431.405 0.933917
223      141.677 1 2 100 -431.405 3.63397
224      141.677 1 2 100 -431.405 0.0508467
225      141.677 1 2 100 -431.405 2.7509
226      141.677 1 2 100 -431.405 5.45096
227      141.677 1 2 100 -431.405 1.86783
228      141.677 1 2 100 -431.405 4.56789
229      141.677 1 2 100 -431.405 0.984764
230      141.677 1 2 100 -431.405 3.68482
231      141.677 1 2 100 -431.405 0.101693
232      141.677 1 2 100 -431.405 2.80175
233      141.677 1 2 100 -431.405 5.50181
234      141.677 1 2 100 -431.405 1.91868
235      141.677 1 2 100 -431.405 4.61874
236      141.677 1 2 100 -431.405 1.03561
237      141.677 1 2 100 -431.405 3.73567
238      141.677 1 2 100 -431.405 0.15254
239      141.677 1 2 100 -431.405 2.8526
240      141.677 1 2 100 -431.405 5.55266
241      141.677 1 2 100 -431.405 1.96953
242      141.677 1 2 100 -431.405 4.66958
243      141.677 1 2 100 -431.405 1.08646
244      141.677 1 2 100 -431.405 3.78651
245      141.677 1 2 100 -431.405 0.203387
246      141.677 1 2 100 -431.405 2.90344
247      141.677 1 2 100 -431.405 5.6035
248      141.677 1 2 100 -431.405 2.02037
249      141.677 1 2 100 -431.405 4.72043
250      141.677 1 2 100 -431.405 1.1373
251      141.677 1 2 100 -431.405 3.83736
252      141.677 1 2 100 -431.405 0.254233
253      141.677 1 2 100 -419.08 0
254      141.677 1 2 100 -419.08 0.289158
255      141.677 1 2 100 -419.08 0.578317
256      141.677 1 2 100 -419.08 0.867475
257      141.677 1 2 100 -419.08 1.15663
258      141.677 1 2 100 -419.08 1.44579
259      141.677 1 2 100 -419.08 1.73495
260      141.677 1 2 100 -419.08 2.02411
261      141.677 1 2 100 -419.08 2.31327
262      141.677 1 2 100 -419.08 2.60243
263      141.677 1 2 100 -419.08 2.89158
264      141.677 1 2 100 -419.08 3.18074
265      141.677 1 2 100 -419.08 3.4699
266      141.677 1 2 100 -419.08 3.75906
267      141.677 1 2 100 -419.08 4.04822
268      141.677 1 2 100 -419.08 4.33738
269      141.677 1 2 100 -419.08 4.62654
270      141.677 1 2 100 -419.08 4.91569
271      141.677 1 2 100 -419.08 5.20485
272      141.677 1 2 100 -419.08 5.49401
273      141.677 1 2 100 -419.08 5.78317
274      141.677 1 2 100 -419.08 6.07233
275      141.677 1 2 100 -419.08 0.0783011
276      141.677 1 2 100 -419.08 0.36746
277      141.677 1 2 100 -419.08 0.656618
278      141.677 1 2 100 -419.08 0.945776
279      141.677 1 2 100 -419.08 1.23493
280      141.677 1 2 100 -419.08 1.52409
281      141.677 1 2 100 -419.08 1.81325
282      141.677 1 2 100 -419.08 2.10241
283      141.677 1 2 100 -419.08 2.39157
284      141.677 1 2 100 -419.08 2.68073
285      141.677 1 2 100 -419.08 2.96989
286      141.677 1 2 100 -419.08 3.25904
287      141.677 1 2 100 -419.08 3.5482
288      141.677 1 2 100 -419.08 3.83736
289      141.677 1 2 100 -406.754 0
290      141.677 1 2 100 -406.754 4.16144
291      141.677 1 2 100 -406.754 2.0397
292      141.677 1 2 100 -406.754 6.20115
293      141.677 1 2 100 -406.754 4.07941
294      141.677 1 2 100 -406.754 1.95767
295      141.677 1 2 100 -406.754 6.11911
296      141.677 1 2 100 -406.754 3.99737
297      141.677 1 2 100 -406.754 1.87563
298      141.677 1 2 100 -406.754 6.03708
299      141.677 1 2 100 -406.754 3.91534
300      141.677 1 2 100 -406.754 1.79359
301      141.677 1 2 100 -406.754 5.95504
302      141.677 1 2 100 -406.754 3.8333
303      141.677 1 2 100 -406.754 1.71156
304      141.677 1 2 100 -406.754 5.873
305      141.677 1 2 100 -406.754 3.75126
306      141.677 1 2 100 -406.754 1.62952
307      141.677 1 2 100 -406.754 5.79097
308      141.677 1 2 100 -406.754 3.66923
309      141.677 1 2 100 -406.754 1.54749
310      141.677 1 2 100 -406.754 5.70893
311      141.677 1 2 100 -406.754 3.58719
312      141.677 1 2 100 -406.754 1.46545
313      141.677 1 2 100 -406.754 5.62689
314      141.677 1 2 100 -406.754 3.50515
315      141.677 1 2 100 -406.754 1.38341
316      141.677 1 2 100 -406.754 5.54486
317      141.677 1 2 100 -406.754 3.42312
318      141.677 1 2 100 -406.754 1.30138
319      141.677 1 2 100 -406.754 5.46282
320      141.677 1 2 100 -406.754 3.34108
321      141.677 1 2 100 -406.754 1.21934
322      141.677 1 2 100 -406.754 5.38078
323      141.677 1 2 100 -406.754 3.25904
324      141.677 1 2 100 -406.754 1.1373
325      141.677 1 2 100 -394.428 0
326      141.677 1 2 100 -394.428 1.75055
327      141.677 1 2 100 -394.428 3.50109
328      141.677 1 2 100 -394.428 5.25164
329      141.677 1 2 100 -394.428 0.718997
330      141.677 1 2 100 -394.428 2.46954
331      141.677 1 2 100 -394.428 4.22009
332      141.677 1 2 100 -394.428 5.97063
333      141.677 1 2 100 -394.428 1.43799
334      141.677 1 2 100 -394.428 3.18854
335      141.677 1 2 100 -394.428 4.93909
336      141.677 1 2 100 -394.428 0.406447
337      141.677 1 2 100 -394.428 2.15699
338      141.677 1 2 100 -394.428 3.90754
339      141.677 1 2 100 -394.428 5.65808
340      141.677 1 2 100 -394.428 1.12544
341      141.677 1 2 100 -394.428 2.87599
342      141.677 1 2 100 -394.428 4.62654
343      141.677 1 2 100 -394.428 0.0938959
344      141.677 1 2 100 -394.428 1.84444
345      141.677 1 2 100 -394.428 3.59499
346      141.677 1 2 100 -394.428 5.34553
347      141.677 1 2 100 -394.428 0.812893
348      141.677 1 2 100 -394.428 2.56344
349      141.677 1 2 100 -394.428 4.31398
350      141.677 1 2 100 -394.428 6.06453
351      141.677 1 2 100 -394.428 1.53189
352      141.677 1 2 100 -394.428 3.28244
353      141.677 1 2 100 -394.428 5.03298
354      141.677 1 2 100 -394.428 0.500343
355      141.677 1 2 100 -394.428 2.25089
356      141.677 1 2 100 -394.428 4.00143
357      141.677 1 2 100 -394.428 5.75198
358      141.677 1 2 100 -394.428 1.21934
359      141.677 1 2 100 -394.428 2.96989
360      141.677 1 2 100 -394.428 4.72043
361      141.677 1 2 100 -382.102 0
362      141.677 1 2 100 -382.102 5.62283
363      141.677 1 2 100 -382.102 4.96248
364      141.677 1 2 100 -382.102 4.30213
365      141.677 1 2 100 -382.102 3.64177
366      141.677 1 2 100 -382.102 2.98142
367      141.677 1 2 100 -382.102 2.32107
368      141.677 1 2 100 -382.102 1.66071
369      141.677 1 2 100 -382.102 1.00036
370      141.677 1 2 100 -382.102 0.340005
371      141.677 1 2 100 -382.102 5.96284
372      141.677 1 2 100 -382.102 5.30248
373      141.677 1 2 100 -382.102 4.64213
374      141.677 1 2 100 -382.102 3.98178
375      141.677 1 2 100 -382.102 3.32142
376      141.677 1 2 100 -382.102 2.66107
377      141.677 1 2 100 -382.102 2.00072
378      141.677 1 2 100 -382.102 1.34036
379      141.677 1 2 100 -382.102 0.68001
380      141.677 1 2 100 -382.102 0.0196569
381      141.677 1 2 100 -382.102 5.64249
382      141.677 1 2 100 -382.102 4.98214
383      141.677 1 2 100 -382.102 4.32178
384      141.677 1 2 100 -382.102 3.66143
385      141.677 1 2 100 -382.102 3.00108
386      141.677 1 2 100 -382.102 2.34072
387      141.677 1 2 100 -382.102 1.68037
388      141.677 1 2 100 -382.102 1.02002
389      141.677 1 2 100 -382.102 0.359662
390      141.677 1 2 100 -382.102 5.98249
391      141.677 1 2 100 -382.102 5.32214
392      141.677 1 2 100 -382.102 4.66179
393      141.677 1 2 100 -382.102 4.00143
394      141.677 1 2 100 -382.102 3.34108
395      141.677 1 2 100 -382.102 2.68073
396      141.677 1 2 100 -382.102 2.02037
397      141.677 1 2 100 -369.776 0
398      141.677 1 2 100 -369.776 3.21193
399      141.677 1 2 100 -369.776 0.140681
400      141.677 1 2 100 -369.776 3.35261
401      141.677 1 2 100 -369.776 0.281361
402      141.677 1 2 100 -369.776 3.49329
403      141.677 1 2 100 -369.776 0.422042
404      141.677 1 2 100 -369.776 3.63397
405      141.677 1 2 100 -369.776 0.562722
406      141.677 1 2 100 -369.776 3.77465
407      141.677 1 2 100 -369.776 0.703403
408      141.677 1 2 100 -369.776 3.91534
409      141.677 1 2 100 -369.776 0.844083
410      141.677 1 2 100 -369.776 4.05602
411      141.677 1 2 100 -369.776 0.984764
412      141.677 1 2 100 -369.776 4.1967
413      141.677 1 2 100 -369.776 1.12544
414      141.677 1 2 100 -369.776 4.33738
415      141.677 1 2 100 -369.776 1.26612
416      141.677 1 2 100 -369.776 4.47806
417      141.677 1 2 100 -369.776 1.40681
418      141.677 1 2 100 -369.776 4.61874
419      141.677 1 2 100 -369.776 1.54749
420      141.677 1 2 100 -369.776 4.75942
421      141.677 1 2 100 -369.776 1.68817
422      141.677 1 2 100 -369.776 4.9001
423      141.677 1 2 100 -369.776 1.82885
424      141.677 1 2 100 -369.776 5.04078
425      141.677 1 2 100 -369.776 1.96953
426      141.677 1 2 100 -369.776 5.18146
427      141.677 1 2 100 -369.776 2.11021
428      141.677 1 2 100 -369.776 5.32214
429      141.677 1 2 100 -369.776 2.25089
430      141.677 1 2 100 -369.776 5.46282
431      141.677 1 2 100 -369.776 2.39157
432      141.677 1 2 100 -369.776 5.6035
433      141.677 1 2 100 -357.45 0
434      141.677 1 2 100 -357.45 0.801034
435      141.677 1 2 100 -357.45 1.60207
436      141.677 1 2 100 -357.45 2.4031
437      141.677 1 2 100 -357.45 3.20414
438      141.677 1 2 100 -357.45 4.00517
439      141.677 1 2 100 -357.45 4.8062
440      141.677 1 2 100 -357.45 5.60724
441      141.677 1 2 100 -357.45 0.125086
442      141.677 1 2 100 -357.45 0.92612
443      141.677 1 2 100 -357.45 1.72715
444      141.677 1 2 100 -357.45 2.52819
445      141.677 1 2 100 -357.45 3.32922
446      141.677 1 2 100 -357.45 4.13026
447      141.677 1 2 100 -357.45 4.93129
448      141.677 1 2 100 -357.45 5.73232
449      141.677 1 2 100 -357.45 0.250171
450      141.677 1 2 100 -357.45 1.05121
451      141.677 1 2 100 -357.45 1.85224
452      141.677 1 2 100 -357.45 2.65327
453      141.677 1 2 100 -357.45 3.45431
454      141.677 1 2 100 -357.45 4.25534
455      141.677 1 2 100 -357.45 5.05637
456      141.677 1 2 100 -357.45 5.85741
457      141.677 1 2 100 -357.45 0.375257
458      141.677 1 2 100 -357.45 1.17629
459      141.677 1 2 100 -357.45 1.97732
460      141.677 1 2 100 -357.45 2.77836
461      141.677 1 2 100 -357.45 3.57939
462      141.677 1 2 100 -357.45 4.38043
463      141.677 1 2 100 -357.45 5.18146
464      141.677 1 2 100 -357.45 5.98249
465      141.677 1 2 100 -357.45 0.500343
466      141.677 1 2 100 -357.45 1.30138
467      141.677 1 2 100 -357.45 2.10241
468      141.677 1 2 100 -357.45 2.90344
469      141.677 1 2 100 -345.124 0
470      141.677 1 2 100 -345.124 4.67332
471      141.677 1 2 100 -345.124 3.06345
472      141.677 1 2 100 -345.124 1.45359
473      141.677 1 2 100 -345.124 6.12691
474      141.677 1 2 100 -345.124 4.51704
475      141.677 1 2 100 -345.124 2.90718
476      141.677 1 2 100 -345.124 1.29731
477      141.677 1 2 100 -345.124 5.97063
478      141.677 1 2 100 -345.124 4.36077
479      141.677 1 2 100 -345.124 2.7509
480      141.677 1 2 100 -345.124 1.14104
481      141.677 1 2 100 -345.124 5.81436
