# Pulseq sequence file
# Created by MATLAB mr toolbox

# Created for Pulseq-CEST
# https://pulseq-cest.github.io/
# Created by: JRS
# Created at: 12-Jul-2023 16:19:51

[VERSION]
major 1
minor 3
revision 1

[DEFINITIONS]
B0 2.89500052 
B1pa 1.78 
B1rms 1.8 
DCsat 0.909090909 
FREQ 123.2587 
M0_offset -300 
Trec 3.5 
Trec_M0 3.5 
Tsat 1.975 
n_pulses 36 
num_meas 162 
offsets_ppm -300 -4 -3.95 -3.9 -3.85 -3.8 -3.75 -3.7 -3.65 -3.6 -3.55 -3.5 -3.45 -3.4 -3.35 -3.3 -3.25 -3.2 -3.15 -3.1 -3.05 -3 -2.95 -2.9 -2.85 -2.8 -2.75 -2.7 -2.65 -2.6 -2.55 -2.5 -2.45 -2.4 -2.35 -2.3 -2.25 -2.2 -2.15 -2.1 -2.05 -2 -1.95 -1.9 -1.85 -1.8 -1.75 -1.7 -1.65 -1.6 -1.55 -1.5 -1.45 -1.4 -1.35 -1.3 -1.25 -1.2 -1.15 -1.1 -1.05 -1 -0.95 -0.9 -0.85 -0.8 -0.75 -0.7 -0.65 -0.6 -0.55 -0.5 -0.45 -0.4 -0.35 -0.3 -0.25 -0.2 -0.15 -0.1 -0.05 0 0.05 0.1 0.15 0.2 0.25 0.3 0.35 0.4 0.45 0.5 0.55 0.6 0.65 0.7 0.75 0.8 0.85 0.9 0.95 1 1.05 1.1 1.15 1.2 1.25 1.3 1.35 1.4 1.45 1.5 1.55 1.6 1.65 1.7 1.75 1.8 1.85 1.9 1.95 2 2.05 2.1 2.15 2.2 2.25 2.3 2.35 2.4 2.45 2.5 2.55 2.6 2.65 2.7 2.75 2.8 2.85 2.9 2.95 3 3.05 3.1 3.15 3.2 3.25 3.3 3.35 3.4 3.45 3.5 3.55 3.6 3.65 3.7 3.75 3.8 3.85 3.9 3.95 4 
seq_id_string  
spoiling 1 
td 0.005 
tp 0.05 

# Format of blocks:
#  #  D RF  GX  GY  GZ ADC EXT
[BLOCKS]
    1  1  0   0   0   0  0  0
    2  0  1   0   0   0  0  0
    3  0  0   1   1   1  0  0
    4  0  2   0   0   0  0  0
    5  0  0   1   1   1  0  0
    6  0  3   0   0   0  0  0
    7  0  0   1   1   1  0  0
    8  0  4   0   0   0  0  0
    9  0  0   1   1   1  0  0
   10  0  5   0   0   0  0  0
   11  0  0   1   1   1  0  0
   12  0  6   0   0   0  0  0
   13  0  0   1   1   1  0  0
   14  0  7   0   0   0  0  0
   15  0  0   1   1   1  0  0
   16  0  8   0   0   0  0  0
   17  0  0   1   1   1  0  0
   18  0  9   0   0   0  0  0
   19  0  0   1   1   1  0  0
   20  0 10   0   0   0  0  0
   21  0  0   1   1   1  0  0
   22  0 11   0   0   0  0  0
   23  0  0   1   1   1  0  0
   24  0 12   0   0   0  0  0
   25  0  0   1   1   1  0  0
   26  0 13   0   0   0  0  0
   27  0  0   1   1   1  0  0
   28  0 14   0   0   0  0  0
   29  0  0   1   1   1  0  0
   30  0 15   0   0   0  0  0
   31  0  0   1   1   1  0  0
   32  0 16   0   0   0  0  0
   33  0  0   1   1   1  0  0
   34  0 17   0   0   0  0  0
   35  0  0   1   1   1  0  0
   36  0 18   0   0   0  0  0
   37  0  0   1   1   1  0  0
   38  0 19   0   0   0  0  0
   39  0  0   1   1   1  0  0
   40  0 20   0   0   0  0  0
   41  0  0   1   1   1  0  0
   42  0 21   0   0   0  0  0
   43  0  0   1   1   1  0  0
   44  0 22   0   0   0  0  0
   45  0  0   1   1   1  0  0
   46  0 23   0   0   0  0  0
   47  0  0   1   1   1  0  0
   48  0 24   0   0   0  0  0
   49  0  0   1   1   1  0  0
   50  0 25   0   0   0  0  0
   51  0  0   1   1   1  0  0
   52  0 26   0   0   0  0  0
   53  0  0   1   1   1  0  0
   54  0 27   0   0   0  0  0
   55  0  0   1   1   1  0  0
   56  0 28   0   0   0  0  0
   57  0  0   1   1   1  0  0
   58  0 29   0   0   0  0  0
   59  0  0   1   1   1  0  0
   60  0 30   0   0   0  0  0
   61  0  0   1   1   1  0  0
   62  0 31   0   0   0  0  0
   63  0  0   1   1   1  0  0
   64  0 32   0   0   0  0  0
   65  0  0   1   1   1  0  0
   66  0 33   0   0   0  0  0
   67  0  0   1   1   1  0  0
   68  0 34   0   0   0  0  0
   69  0  0   1   1   1  0  0
   70  0 35   0   0   0  0  0
   71  0  0   1   1   1  0  0
   72  0 36   0   0   0  0  0
   73  0  0   2   2   2  0  0
   74  0  0   0   0   0  1  0
   75  1  0   0   0   0  0  0
   76  0 37   0   0   0  0  0
   77  0  0   1   1   1  0  0
   78  0 38   0   0   0  0  0
   79  0  0   1   1   1  0  0
   80  0 39   0   0   0  0  0
   81  0  0   1   1   1  0  0
   82  0 40   0   0   0  0  0
   83  0  0   1   1   1  0  0
   84  0 41   0   0   0  0  0
   85  0  0   1   1   1  0  0
   86  0 42   0   0   0  0  0
   87  0  0   1   1   1  0  0
   88  0 43   0   0   0  0  0
   89  0  0   1   1   1  0  0
   90  0 44   0   0   0  0  0
   91  0  0   1   1   1  0  0
   92  0 45   0   0   0  0  0
   93  0  0   1   1   1  0  0
   94  0 46   0   0   0  0  0
   95  0  0   1   1   1  0  0
   96  0 47   0   0   0  0  0
   97  0  0   1   1   1  0  0
   98  0 48   0   0   0  0  0
   99  0  0   1   1   1  0  0
  100  0 49   0   0   0  0  0
  101  0  0   1   1   1  0  0
  102  0 50   0   0   0  0  0
  103  0  0   1   1   1  0  0
  104  0 51   0   0   0  0  0
  105  0  0   1   1   1  0  0
  106  0 52   0   0   0  0  0
  107  0  0   1   1   1  0  0
  108  0 53   0   0   0  0  0
  109  0  0   1   1   1  0  0
  110  0 54   0   0   0  0  0
  111  0  0   1   1   1  0  0
  112  0 55   0   0   0  0  0
  113  0  0   1   1   1  0  0
  114  0 56   0   0   0  0  0
  115  0  0   1   1   1  0  0
  116  0 57   0   0   0  0  0
  117  0  0   1   1   1  0  0
  118  0 58   0   0   0  0  0
  119  0  0   1   1   1  0  0
  120  0 59   0   0   0  0  0
  121  0  0   1   1   1  0  0
  122  0 60   0   0   0  0  0
  123  0  0   1   1   1  0  0
  124  0 61   0   0   0  0  0
  125  0  0   1   1   1  0  0
  126  0 62   0   0   0  0  0
  127  0  0   1   1   1  0  0
  128  0 63   0   0   0  0  0
  129  0  0   1   1   1  0  0
  130  0 64   0   0   0  0  0
  131  0  0   1   1   1  0  0
  132  0 65   0   0   0  0  0
  133  0  0   1   1   1  0  0
  134  0 66   0   0   0  0  0
  135  0  0   1   1   1  0  0
  136  0 67   0   0   0  0  0
  137  0  0   1   1   1  0  0
  138  0 68   0   0   0  0  0
  139  0  0   1   1   1  0  0
  140  0 69   0   0   0  0  0
  141  0  0   1   1   1  0  0
  142  0 70   0   0   0  0  0
  143  0  0   1   1   1  0  0
  144  0 71   0   0   0  0  0
  145  0  0   1   1   1  0  0
  146  0 72   0   0   0  0  0
  147  0  0   2   2   2  0  0
  148  0  0   0   0   0  1  0
  149  1  0   0   0   0  0  0
  150  0 73   0   0   0  0  0
  151  0  0   1   1   1  0  0
  152  0 74   0   0   0  0  0
  153  0  0   1   1   1  0  0
  154  0 75   0   0   0  0  0
  155  0  0   1   1   1  0  0
  156  0 76   0   0   0  0  0
  157  0  0   1   1   1  0  0
  158  0 77   0   0   0  0  0
  159  0  0   1   1   1  0  0
  160  0 78   0   0   0  0  0
  161  0  0   1   1   1  0  0
  162  0 79   0   0   0  0  0
  163  0  0   1   1   1  0  0
  164  0 80   0   0   0  0  0
  165  0  0   1   1   1  0  0
  166  0 81   0   0   0  0  0
  167  0  0   1   1   1  0  0
  168  0 82   0   0   0  0  0
  169  0  0   1   1   1  0  0
  170  0 83   0   0   0  0  0
  171  0  0   1   1   1  0  0
  172  0 84   0   0   0  0  0
  173  0  0   1   1   1  0  0
  174  0 85   0   0   0  0  0
  175  0  0   1   1   1  0  0
  176  0 86   0   0   0  0  0
  177  0  0   1   1   1  0  0
  178  0 87   0   0   0  0  0
  179  0  0   1   1   1  0  0
  180  0 88   0   0   0  0  0
  181  0  0   1   1   1  0  0
  182  0 89   0   0   0  0  0
  183  0  0   1   1   1  0  0
  184  0 90   0   0   0  0  0
  185  0  0   1   1   1  0  0
  186  0 91   0   0   0  0  0
  187  0  0   1   1   1  0  0
  188  0 92   0   0   0  0  0
  189  0  0   1   1   1  0  0
  190  0 93   0   0   0  0  0
  191  0  0   1   1   1  0  0
  192  0 94   0   0   0  0  0
  193  0  0   1   1   1  0  0
  194  0 95   0   0   0  0  0
  195  0  0   1   1   1  0  0
  196  0 96   0   0   0  0  0
  197  0  0   1   1   1  0  0
  198  0 97   0   0   0  0  0
  199  0  0   1   1   1  0  0
  200  0 98   0   0   0  0  0
  201  0  0   1   1   1  0  0
  202  0 99   0   0   0  0  0
  203  0  0   1   1   1  0  0
  204  0 100   0   0   0  0  0
  205  0  0   1   1   1  0  0
  206  0 101   0   0   0  0  0
  207  0  0   1   1   1  0  0
  208  0 102   0   0   0  0  0
  209  0  0   1   1   1  0  0
  210  0 103   0   0   0  0  0
  211  0  0   1   1   1  0  0
  212  0 104   0   0   0  0  0
  213  0  0   1   1   1  0  0
  214  0 105   0   0   0  0  0
  215  0  0   1   1   1  0  0
  216  0 106   0   0   0  0  0
  217  0  0   1   1   1  0  0
  218  0 107   0   0   0  0  0
  219  0  0   1   1   1  0  0
  220  0 108   0   0   0  0  0
  221  0  0   2   2   2  0  0
  222  0  0   0   0   0  1  0
  223  1  0   0   0   0  0  0
  224  0 109   0   0   0  0  0
  225  0  0   1   1   1  0  0
  226  0 110   0   0   0  0  0
  227  0  0   1   1   1  0  0
  228  0 111   0   0   0  0  0
  229  0  0   1   1   1  0  0
  230  0 112   0   0   0  0  0
  231  0  0   1   1   1  0  0
  232  0 113   0   0   0  0  0
  233  0  0   1   1   1  0  0
  234  0 114   0   0   0  0  0
  235  0  0   1   1   1  0  0
  236  0 115   0   0   0  0  0
  237  0  0   1   1   1  0  0
  238  0 116   0   0   0  0  0
  239  0  0   1   1   1  0  0
  240  0 117   0   0   0  0  0
  241  0  0   1   1   1  0  0
  242  0 118   0   0   0  0  0
  243  0  0   1   1   1  0  0
  244  0 119   0   0   0  0  0
  245  0  0   1   1   1  0  0
  246  0 120   0   0   0  0  0
  247  0  0   1   1   1  0  0
  248  0 121   0   0   0  0  0
  249  0  0   1   1   1  0  0
  250  0 122   0   0   0  0  0
  251  0  0   1   1   1  0  0
  252  0 123   0   0   0  0  0
  253  0  0   1   1   1  0  0
  254  0 124   0   0   0  0  0
  255  0  0   1   1   1  0  0
  256  0 125   0   0   0  0  0
  257  0  0   1   1   1  0  0
  258  0 126   0   0   0  0  0
  259  0  0   1   1   1  0  0
  260  0 127   0   0   0  0  0
  261  0  0   1   1   1  0  0
  262  0 128   0   0   0  0  0
  263  0  0   1   1   1  0  0
  264  0 129   0   0   0  0  0
  265  0  0   1   1   1  0  0
  266  0 130   0   0   0  0  0
  267  0  0   1   1   1  0  0
  268  0 131   0   0   0  0  0
  269  0  0   1   1   1  0  0
  270  0 132   0   0   0  0  0
  271  0  0   1   1   1  0  0
  272  0 133   0   0   0  0  0
  273  0  0   1   1   1  0  0
  274  0 134   0   0   0  0  0
  275  0  0   1   1   1  0  0
  276  0 135   0   0   0  0  0
  277  0  0   1   1   1  0  0
  278  0 136   0   0   0  0  0
  279  0  0   1   1   1  0  0
  280  0 137   0   0   0  0  0
  281  0  0   1   1   1  0  0
  282  0 138   0   0   0  0  0
  283  0  0   1   1   1  0  0
  284  0 139   0   0   0  0  0
  285  0  0   1   1   1  0  0
  286  0 140   0   0   0  0  0
  287  0  0   1   1   1  0  0
  288  0 141   0   0   0  0  0
  289  0  0   1   1   1  0  0
[RF]
1      127.751 1 2 100 -36977.6 0
2      127.751 1 2 100 -36977.6 0.750841
3      127.751 1 2 100 -36977.6 1.50168
4      127.751 1 2 100 -36977.6 2.25252
5      127.751 1 2 100 -36977.6 3.00336
6      127.751 1 2 100 -36977.6 3.7542
7      127.751 1 2 100 -36977.6 4.50504
8      127.751 1 2 100 -36977.6 5.25588
9      127.751 1 2 100 -36977.6 6.00673
10      127.751 1 2 100 -36977.6 0.47438
11      127.751 1 2 100 -36977.6 1.22522
12      127.751 1 2 100 -36977.6 1.97606
13      127.751 1 2 100 -36977.6 2.7269
14      127.751 1 2 100 -36977.6 3.47774
15      127.751 1 2 100 -36977.6 4.22858
16      127.751 1 2 100 -36977.6 4.97942
17      127.751 1 2 100 -36977.6 5.73027
18      127.751 1 2 100 -36977.6 0.19792
19      127.751 1 2 100 -36977.6 0.948761
20      127.751 1 2 100 -36977.6 1.6996
21      127.751 1 2 100 -36977.6 2.45044
22      127.751 1 2 100 -36977.6 3.20128
23      127.751 1 2 100 -36977.6 3.95212
24      127.751 1 2 100 -36977.6 4.70296
25      127.751 1 2 100 -36977.6 5.4538
26      127.751 1 2 100 -36977.6 6.20465
27      127.751 1 2 100 -36977.6 0.672301
28      127.751 1 2 100 -36977.6 1.42314
29      127.751 1 2 100 -36977.6 2.17398
30      127.751 1 2 100 -36977.6 2.92482
31      127.751 1 2 100 -36977.6 3.67566
32      127.751 1 2 100 -36977.6 4.4265
33      127.751 1 2 100 -36977.6 5.17734
34      127.751 1 2 100 -36977.6 5.92819
35      127.751 1 2 100 -36977.6 0.395841
36      127.751 1 2 100 -36977.6 1.14668
37      127.751 1 2 100 -493.035 0
38      127.751 1 2 100 -493.035 2.18818
39      127.751 1 2 100 -493.035 4.37636
40      127.751 1 2 100 -493.035 0.281361
41      127.751 1 2 100 -493.035 2.46954
42      127.751 1 2 100 -493.035 4.65773
43      127.751 1 2 100 -493.035 0.562722
44      127.751 1 2 100 -493.035 2.7509
45      127.751 1 2 100 -493.035 4.93909
46      127.751 1 2 100 -493.035 0.844083
47      127.751 1 2 100 -493.035 3.03227
48      127.751 1 2 100 -493.035 5.22045
49      127.751 1 2 100 -493.035 1.12544
50      127.751 1 2 100 -493.035 3.31363
51      127.751 1 2 100 -493.035 5.50181
52      127.751 1 2 100 -493.035 1.40681
53      127.751 1 2 100 -493.035 3.59499
54      127.751 1 2 100 -493.035 5.78317
55      127.751 1 2 100 -493.035 1.68817
56      127.751 1 2 100 -493.035 3.87635
57      127.751 1 2 100 -493.035 6.06453
58      127.751 1 2 100 -493.035 1.96953
59      127.751 1 2 100 -493.035 4.15771
60      127.751 1 2 100 -493.035 0.0627062
61      127.751 1 2 100 -493.035 2.25089
62      127.751 1 2 100 -493.035 4.43907
63      127.751 1 2 100 -493.035 0.344067
64      127.751 1 2 100 -493.035 2.53225
65      127.751 1 2 100 -493.035 4.72043
66      127.751 1 2 100 -493.035 0.625428
67      127.751 1 2 100 -493.035 2.81361
68      127.751 1 2 100 -493.035 5.00179
69      127.751 1 2 100 -493.035 0.906789
70      127.751 1 2 100 -493.035 3.09497
71      127.751 1 2 100 -493.035 5.28315
72      127.751 1 2 100 -493.035 1.18815
73      127.751 1 2 100 -486.872 0
74      127.751 1 2 100 -486.872 4.12433
75      127.751 1 2 100 -486.872 1.96547
76      127.751 1 2 100 -486.872 6.08979
77      127.751 1 2 100 -486.872 3.93093
78      127.751 1 2 100 -486.872 1.77207
79      127.751 1 2 100 -486.872 5.8964
80      127.751 1 2 100 -486.872 3.73754
81      127.751 1 2 100 -486.872 1.57868
82      127.751 1 2 100 -486.872 5.703
83      127.751 1 2 100 -486.872 3.54414
84      127.751 1 2 100 -486.872 1.38528
85      127.751 1 2 100 -486.872 5.50961
86      127.751 1 2 100 -486.872 3.35075
87      127.751 1 2 100 -486.872 1.19189
88      127.751 1 2 100 -486.872 5.31621
89      127.751 1 2 100 -486.872 3.15735
90      127.751 1 2 100 -486.872 0.998491
91      127.751 1 2 100 -486.872 5.12282
92      127.751 1 2 100 -486.872 2.96396
93      127.751 1 2 100 -486.872 0.805096
94      127.751 1 2 100 -486.872 4.92942
95      127.751 1 2 100 -486.872 2.77056
96      127.751 1 2 100 -486.872 0.611701
97      127.751 1 2 100 -486.872 4.73603
98      127.751 1 2 100 -486.872 2.57717
99      127.751 1 2 100 -486.872 0.418306
100      127.751 1 2 100 -486.872 4.54263
101      127.751 1 2 100 -486.872 2.38377
102      127.751 1 2 100 -486.872 0.224911
103      127.751 1 2 100 -486.872 4.34924
104      127.751 1 2 100 -486.872 2.19038
105      127.751 1 2 100 -486.872 0.0315165
106      127.751 1 2 100 -486.872 4.15584
107      127.751 1 2 100 -486.872 1.99698
108      127.751 1 2 100 -486.872 6.12131
109      127.751 1 2 100 -480.709 0
110      127.751 1 2 100 -480.709 6.06047
111      127.751 1 2 100 -480.709 5.83775
112      127.751 1 2 100 -480.709 5.61503
113      127.751 1 2 100 -480.709 5.39232
114      127.751 1 2 100 -480.709 5.1696
115      127.751 1 2 100 -480.709 4.94688
116      127.751 1 2 100 -480.709 4.72417
117      127.751 1 2 100 -480.709 4.50145
118      127.751 1 2 100 -480.709 4.27873
119      127.751 1 2 100 -480.709 4.05602
120      127.751 1 2 100 -480.709 3.8333
121      127.751 1 2 100 -480.709 3.61058
122      127.751 1 2 100 -480.709 3.38787
123      127.751 1 2 100 -480.709 3.16515
124      127.751 1 2 100 -480.709 2.94243
125      127.751 1 2 100 -480.709 2.71971
126      127.751 1 2 100 -480.709 2.497
127      127.751 1 2 100 -480.709 2.27428
128      127.751 1 2 100 -480.709 2.05156
129      127.751 1 2 100 -480.709 1.82885
130      127.751 1 2 100 -480.709 1.60613
131      127.751 1 2 100 -480.709 1.38341
132      127.751 1 2 100 -480.709 1.1607
133      127.751 1 2 100 -480.709 0.937979
134      127.751 1 2 100 -480.709 0.715262
135      127.751 1 2 100 -480.709 0.492545
136      127.751 1 2 100 -480.709 0.269828
137      127.751 1 2 100 -480.709 0.0471113
138      127.751 1 2 100 -480.709 6.10758
139      127.751 1 2 100 -480.709 5.88486
140      127.751 1 2 100 -480.709 5.66215
141      127.751 1 2 100 -480.709 5.43943
142      127.751 1 2 100 -480.709 5.21671
143      127.751 1 2 100 -480.709 4.994
144      127.751 1 2 100 -480.709 4.77128
145      127.751 1 2 100 -474.546 0
146      127.751 1 2 100 -474.546 1.71343
147      127.751 1 2 100 -474.546 3.42685
148      127.751 1 2 100 -474.546 5.14028
149      127.751 1 2 100 -474.546 0.57052
150      127.751 1 2 100 -474.546 2.28395
151      127.751 1 2 100 -474.546 3.99737
152      127.751 1 2 100 -474.546 5.7108
153      127.751 1 2 100 -474.546 1.14104
154      127.751 1 2 100 -474.546 2.85447
155      127.751 1 2 100 -474.546 4.56789
156      127.751 1 2 100 -474.546 6.28132
157      127.751 1 2 100 -474.546 1.71156
158      127.751 1 2 100 -474.546 3.42498
159      127.751 1 2 100 -474.546 5.13841
160      127.751 1 2 100 -474.546 0.568652
161      127.751 1 2 100 -474.546 2.28208
162      127.751 1 2 100 -474.546 3.9955
163      127.751 1 2 100 -474.546 5.70893
164      127.751 1 2 100 -474.546 1.13917
165      127.751 1 2 100 -474.546 2.8526
166      127.751 1 2 100 -474.546 4.56602
167      127.751 1 2 100 -474.546 6.27945
168      127.751 1 2 100 -474.546 1.70969
169      127.751 1 2 100 -474.546 3.42312
170      127.751 1 2 100 -474.546 5.13654
171      127.751 1 2 100 -474.546 0.566784
172      127.751 1 2 100 -474.546 2.28021
173      127.751 1 2 100 -474.546 3.99364
174      127.751 1 2 100 -474.546 5.70706
175      127.751 1 2 100 -474.546 1.1373
176      127.751 1 2 100 -474.546 2.85073
177      127.751 1 2 100 -474.546 4.56416
178      127.751 1 2 100 -474.546 6.27758
179      127.751 1 2 100 -474.546 1.70782
180      127.751 1 2 100 -474.546 3.42125
181      127.751 1 2 100 -468.383 0
182      127.751 1 2 100 -468.383 3.64957
183      127.751 1 2 100 -468.383 1.01595
184      127.751 1 2 100 -468.383 4.66552
185      127.751 1 2 100 -468.383 2.03191
186      127.751 1 2 100 -468.383 5.68148
187      127.751 1 2 100 -468.383 3.04786
188      127.751 1 2 100 -468.383 0.414244
189      127.751 1 2 100 -468.383 4.06381
190      127.751 1 2 100 -468.383 1.4302
191      127.751 1 2 100 -468.383 5.07977
192      127.751 1 2 100 -468.383 2.44615
193      127.751 1 2 100 -468.383 6.09572
194      127.751 1 2 100 -468.383 3.4621
195      127.751 1 2 100 -468.383 0.828488
196      127.751 1 2 100 -468.383 4.47806
197      127.751 1 2 100 -468.383 1.84444
198      127.751 1 2 100 -468.383 5.49401
199      127.751 1 2 100 -468.383 2.86039
200      127.751 1 2 100 -468.383 0.226779
201      127.751 1 2 100 -468.383 3.87635
202      127.751 1 2 100 -468.383 1.24273
203      127.751 1 2 100 -468.383 4.8923
204      127.751 1 2 100 -468.383 2.25869
205      127.751 1 2 100 -468.383 5.90826
206      127.751 1 2 100 -468.383 3.27464
207      127.751 1 2 100 -468.383 0.641023
208      127.751 1 2 100 -468.383 4.29059
209      127.751 1 2 100 -468.383 1.65698
210      127.751 1 2 100 -468.383 5.30655
211      127.751 1 2 100 -468.383 2.67293
212      127.751 1 2 100 -468.383 0.0393139
213      127.751 1 2 100 -468.383 3.68888
214      127.751 1 2 100 -468.383 1.05527
215      127.751 1 2 100 -468.383 4.70484
216      127.751 1 2 100 -468.383 2.07122
217      127.751 1 2 100 -462.22 0
218      127.751 1 2 100 -462.22 5.58571
219      127.751 1 2 100 -462.22 4.88824
220      127.751 1 2 100 -462.22 4.19077
221      127.751 1 2 100 -462.22 3.49329
222      127.751 1 2 100 -462.22 2.79582
223      127.751 1 2 100 -462.22 2.09835
224      127.751 1 2 100 -462.22 1.40088
225      127.751 1 2 100 -462.22 0.703403
226      127.751 1 2 100 -462.22 0.00592976
227      127.751 1 2 100 -462.22 5.59164
228      127.751 1 2 100 -462.22 4.89417
229      127.751 1 2 100 -462.22 4.1967
230      127.751 1 2 100 -462.22 3.49922
231      127.751 1 2 100 -462.22 2.80175
232      127.751 1 2 100 -462.22 2.10428
233      127.751 1 2 100 -462.22 1.40681
234      127.751 1 2 100 -462.22 0.709332
235      127.751 1 2 100 -462.22 0.0118595
236      127.751 1 2 100 -462.22 5.59757
237      127.751 1 2 100 -462.22 4.9001
238      127.751 1 2 100 -462.22 4.20263
239      127.751 1 2 100 -462.22 3.50515
240      127.751 1 2 100 -462.22 2.80768
241      127.751 1 2 100 -462.22 2.11021
242      127.751 1 2 100 -462.22 1.41273
243      127.751 1 2 100 -462.22 0.715262
244      127.751 1 2 100 -462.22 0.0177893
245      127.751 1 2 100 -462.22 5.6035
246      127.751 1 2 100 -462.22 4.90603
247      127.751 1 2 100 -462.22 4.20856
248      127.751 1 2 100 -462.22 3.51108
249      127.751 1 2 100 -462.22 2.81361
250      127.751 1 2 100 -462.22 2.11614
251      127.751 1 2 100 -462.22 1.41866
252      127.751 1 2 100 -462.22 0.721192
253      127.751 1 2 100 -456.057 0
254      127.751 1 2 100 -456.057 1.23867
255      127.751 1 2 100 -456.057 2.47734
256      127.751 1 2 100 -456.057 3.71601
257      127.751 1 2 100 -456.057 4.95468
258      127.751 1 2 100 -456.057 6.19335
259      127.751 1 2 100 -456.057 1.14884
260      127.751 1 2 100 -456.057 2.38751
261      127.751 1 2 100 -456.057 3.62618
262      127.751 1 2 100 -456.057 4.86485
263      127.751 1 2 100 -456.057 6.10352
264      127.751 1 2 100 -456.057 1.059
265      127.751 1 2 100 -456.057 2.29767
266      127.751 1 2 100 -456.057 3.53634
267      127.751 1 2 100 -456.057 4.77501
268      127.751 1 2 100 -456.057 6.01368
269      127.751 1 2 100 -456.057 0.969169
270      127.751 1 2 100 -456.057 2.20784
271      127.751 1 2 100 -456.057 3.44651
272      127.751 1 2 100 -456.057 4.68518
273      127.751 1 2 100 -456.057 5.92385
274      127.751 1 2 100 -456.057 0.879335
275      127.751 1 2 100 -456.057 2.11801
276      127.751 1 2 100 -456.057 3.35668
277      127.751 1 2 100 -456.057 4.59535
278      127.751 1 2 100 -456.057 5.83402
279      127.751 1 2 100 -456.057 0.789501
280      127.751 1 2 100 -456.057 2.02817
281      127.751 1 2 100 -456.057 3.26684
282      127.751 1 2 100 -456.057 4.50551
283      127.751 1 2 100 -456.057 5.74418
284      127.751 1 2 100 -456.057 0.699667
285      127.751 1 2 100 -456.057 1.93834
286      127.751 1 2 100 -456.057 3.17701
287      127.751 1 2 100 -456.057 4.41568
288      127.751 1 2 100 -456.057 5.65435
289      127.751 1 2 100 -449.894 0
290      127.751 1 2 100 -449.894 3.17481
291      127.751 1 2 100 -449.894 0.0664415
292      127.751 1 2 100 -449.894 3.24125
293      127.751 1 2 100 -449.894 0.132883
294      127.751 1 2 100 -449.894 3.3077
295      127.751 1 2 100 -449.894 0.199325
296      127.751 1 2 100 -449.894 3.37414
297      127.751 1 2 100 -449.894 0.265766
298      127.751 1 2 100 -449.894 3.44058
299      127.751 1 2 100 -449.894 0.332208
300      127.751 1 2 100 -449.894 3.50702
301      127.751 1 2 100 -449.894 0.398649
302      127.751 1 2 100 -449.894 3.57346
303      127.751 1 2 100 -449.894 0.465091
304      127.751 1 2 100 -449.894 3.6399
305      127.751 1 2 100 -449.894 0.531532
306      127.751 1 2 100 -449.894 3.70635
307      127.751 1 2 100 -449.894 0.597974
308      127.751 1 2 100 -449.894 3.77279
309      127.751 1 2 100 -449.894 0.664415
310      127.751 1 2 100 -449.894 3.83923
311      127.751 1 2 100 -449.894 0.730857
312      127.751 1 2 100 -449.894 3.90567
313      127.751 1 2 100 -449.894 0.797299
314      127.751 1 2 100 -449.894 3.97211
315      127.751 1 2 100 -449.894 0.86374
316      127.751 1 2 100 -449.894 4.03855
317      127.751 1 2 100 -449.894 0.930182
318      127.751 1 2 100 -449.894 4.105
319      127.751 1 2 100 -449.894 0.996623
320      127.751 1 2 100 -449.894 4.17144
321      127.751 1 2 100 -449.894 1.06306
322      127.751 1 2 100 -449.894 4.23788
323      127.751 1 2 100 -449.894 1.12951
324      127.751 1 2 100 -449.894 4.30432
325      127.751 1 2 100 -443.731 0
326      127.751 1 2 100 -443.731 5.11096
327      127.751 1 2 100 -443.731 3.93873
328      127.751 1 2 100 -443.731 2.7665
329      127.751 1 2 100 -443.731 1.59427
330      127.751 1 2 100 -443.731 0.422042
331      127.751 1 2 100 -443.731 5.533
332      127.751 1 2 100 -443.731 4.36077
333      127.751 1 2 100 -443.731 3.18854
334      127.751 1 2 100 -443.731 2.01631
335      127.751 1 2 100 -443.731 0.844083
336      127.751 1 2 100 -443.731 5.95504
337      127.751 1 2 100 -443.731 4.78281
338      127.751 1 2 100 -443.731 3.61058
339      127.751 1 2 100 -443.731 2.43835
340      127.751 1 2 100 -443.731 1.26612
341      127.751 1 2 100 -443.731 0.0938959
342      127.751 1 2 100 -443.731 5.20485
343      127.751 1 2 100 -443.731 4.03262
344      127.751 1 2 100 -443.731 2.86039
345      127.751 1 2 100 -443.731 1.68817
346      127.751 1 2 100 -443.731 0.515937
347      127.751 1 2 100 -443.731 5.62689
348      127.751 1 2 100 -443.731 4.45467
349      127.751 1 2 100 -443.731 3.28244
350      127.751 1 2 100 -443.731 2.11021
351      127.751 1 2 100 -443.731 0.937979
352      127.751 1 2 100 -443.731 6.04894
353      127.751 1 2 100 -443.731 4.87671
354      127.751 1 2 100 -443.731 3.70448
355      127.751 1 2 100 -443.731 2.53225
356      127.751 1 2 100 -443.731 1.36002
357      127.751 1 2 100 -443.731 0.187792
358      127.751 1 2 100 -443.731 5.29875
359      127.751 1 2 100 -443.731 4.12652
360      127.751 1 2 100 -443.731 2.95429
361      127.751 1 2 100 -437.568 0
362      127.751 1 2 100 -437.568 0.763914
363      127.751 1 2 100 -437.568 1.52783
364      127.751 1 2 100 -437.568 2.29174
365      127.751 1 2 100 -437.568 3.05566
366      127.751 1 2 100 -437.568 3.81957
367      127.751 1 2 100 -437.568 4.58349
368      127.751 1 2 100 -437.568 5.3474
369      127.751 1 2 100 -437.568 6.11132
370      127.751 1 2 100 -437.568 0.592044
371      127.751 1 2 100 -437.568 1.35596
372      127.751 1 2 100 -437.568 2.11987
373      127.751 1 2 100 -437.568 2.88379
374      127.751 1 2 100 -437.568 3.6477
375      127.751 1 2 100 -437.568 4.41162
376      127.751 1 2 100 -437.568 5.17553
377      127.751 1 2 100 -437.568 5.93944
378      127.751 1 2 100 -437.568 0.420174
379      127.751 1 2 100 -437.568 1.18409
380      127.751 1 2 100 -437.568 1.948
381      127.751 1 2 100 -437.568 2.71192
382      127.751 1 2 100 -437.568 3.47583
383      127.751 1 2 100 -437.568 4.23975
384      127.751 1 2 100 -437.568 5.00366
385      127.751 1 2 100 -437.568 5.76757
386      127.751 1 2 100 -437.568 0.248304
387      127.751 1 2 100 -437.568 1.01222
388      127.751 1 2 100 -437.568 1.77613
389      127.751 1 2 100 -437.568 2.54005
390      127.751 1 2 100 -437.568 3.30396
391      127.751 1 2 100 -437.568 4.06788
392      127.751 1 2 100 -437.568 4.83179
393      127.751 1 2 100 -437.568 5.5957
394      127.751 1 2 100 -437.568 0.0764334
395      127.751 1 2 100 -437.568 0.840348
396      127.751 1 2 100 -437.568 1.60426
397      127.751 1 2 100 -431.405 0
398      127.751 1 2 100 -431.405 2.70006
399      127.751 1 2 100 -431.405 5.40012
400      127.751 1 2 100 -431.405 1.81699
401      127.751 1 2 100 -431.405 4.51704
402      127.751 1 2 100 -431.405 0.933917
403      127.751 1 2 100 -431.405 3.63397
404      127.751 1 2 100 -431.405 0.0508467
405      127.751 1 2 100 -431.405 2.7509
406      127.751 1 2 100 -431.405 5.45096
407      127.751 1 2 100 -431.405 1.86783
408      127.751 1 2 100 -431.405 4.56789
409      127.751 1 2 100 -431.405 0.984764
410      127.751 1 2 100 -431.405 3.68482
411      127.751 1 2 100 -431.405 0.101693
412      127.751 1 2 100 -431.405 2.80175
413      127.751 1 2 100 -431.405 5.50181
414      127.751 1 2 100 -431.405 1.91868
415      127.751 1 2 100 -431.405 4.61874
416      127.751 1 2 100 -431.405 1.03561
417      127.751 1 2 100 -431.405 3.73567
418      127.751 1 2 100 -431.405 0.15254
419      127.751 1 2 100 -431.405 2.8526
420      127.751 1 2 100 -431.405 5.55266
421      127.751 1 2 100 -431.405 1.96953
422      127.751 1 2 100 -431.405 4.66958
423      127.751 1 2 100 -431.405 1.08646
424      127.751 1 2 100 -431.405 3.78651
425      127.751 1 2 100 -431.405 0.203387
426      127.751 1 2 100 -431.405 2.90344
427      127.751 1 2 100 -431.405 5.6035
428      127.751 1 2 100 -431.405 2.02037
429      127.751 1 2 100 -431.405 4.72043
430      127.751 1 2 100 -431.405 1.1373
431      127.751 1 2 100 -431.405 3.83736
432      127.751 1 2 100 -431.405 0.254233
433      127.751 1 2 100 -425.243 0
434      127.751 1 2 100 -425.243 4.6362
435      127.751 1 2 100 -425.243 2.98922
436      127.751 1 2 100 -425.243 1.34223
437      127.751 1 2 100 -425.243 5.97843
438      127.751 1 2 100 -425.243 4.33145
439      127.751 1 2 100 -425.243 2.68446
440      127.751 1 2 100 -425.243 1.03748
441      127.751 1 2 100 -425.243 5.67368
442      127.751 1 2 100 -425.243 4.02669
443      127.751 1 2 100 -425.243 2.37971
444      127.751 1 2 100 -425.243 0.732725
445      127.751 1 2 100 -425.243 5.36893
446      127.751 1 2 100 -425.243 3.72194
447      127.751 1 2 100 -425.243 2.07496
448      127.751 1 2 100 -425.243 0.427971
449      127.751 1 2 100 -425.243 5.06417
450      127.751 1 2 100 -425.243 3.41719
451      127.751 1 2 100 -425.243 1.7702
452      127.751 1 2 100 -425.243 0.123218
453      127.751 1 2 100 -425.243 4.75942
454      127.751 1 2 100 -425.243 3.11243
455      127.751 1 2 100 -425.243 1.46545
456      127.751 1 2 100 -425.243 6.10165
457      127.751 1 2 100 -425.243 4.45467
458      127.751 1 2 100 -425.243 2.80768
459      127.751 1 2 100 -425.243 1.1607
460      127.751 1 2 100 -425.243 5.7969
461      127.751 1 2 100 -425.243 4.14991
462      127.751 1 2 100 -425.243 2.50293
463      127.751 1 2 100 -425.243 0.855943
464      127.751 1 2 100 -425.243 5.49214
465      127.751 1 2 100 -425.243 3.84516
466      127.751 1 2 100 -425.243 2.19817
467      127.751 1 2 100 -425.243 0.551189
468      127.751 1 2 100 -425.243 5.18739
469      127.751 1 2 100 -419.08 0
470      127.751 1 2 100 -419.08 0.289158
471      127.751 1 2 100 -419.08 0.578317
472      127.751 1 2 100 -419.08 0.867475
473      127.751 1 2 100 -419.08 1.15663
474      127.751 1 2 100 -419.08 1.44579
475      127.751 1 2 100 -419.08 1.73495
476      127.751 1 2 100 -419.08 2.02411
477      127.751 1 2 100 -419.08 2.31327
478      127.751 1 2 100 -419.08 2.60243
479      127.751 1 2 100 -419.08 2.89158
480      127.751 1 2 100 -419.08 3.18074
