# Pulseq sequence file
# Created by MATLAB mr toolbox

# Created for Pulseq-CEST
# https://pulseq-cest.github.io/
# Created by: JRS
# Created at: 13-Jul-2023 12:08:15

[VERSION]
major 1
minor 3
revision 1

[DEFINITIONS]
B0 2.89500052 
B1pa 1.78 
B1rms 1.8 
DCsat 0.909090909 
FREQ 123.2587 
M0_offset -300 
Trec 3.5 
Trec_M0 3.5 
Tsat 0.105 
n_pulses 2 
num_meas 162 
offsets_ppm -300 -4 -3.95 -3.9 -3.85 -3.8 -3.75 -3.7 -3.65 -3.6 -3.55 -3.5 -3.45 -3.4 -3.35 -3.3 -3.25 -3.2 -3.15 -3.1 -3.05 -3 -2.95 -2.9 -2.85 -2.8 -2.75 -2.7 -2.65 -2.6 -2.55 -2.5 -2.45 -2.4 -2.35 -2.3 -2.25 -2.2 -2.15 -2.1 -2.05 -2 -1.95 -1.9 -1.85 -1.8 -1.75 -1.7 -1.65 -1.6 -1.55 -1.5 -1.45 -1.4 -1.35 -1.3 -1.25 -1.2 -1.15 -1.1 -1.05 -1 -0.95 -0.9 -0.85 -0.8 -0.75 -0.7 -0.65 -0.6 -0.55 -0.5 -0.45 -0.4 -0.35 -0.3 -0.25 -0.2 -0.15 -0.1 -0.05 0 0.05 0.1 0.15 0.2 0.25 0.3 0.35 0.4 0.45 0.5 0.55 0.6 0.65 0.7 0.75 0.8 0.85 0.9 0.95 1 1.05 1.1 1.15 1.2 1.25 1.3 1.35 1.4 1.45 1.5 1.55 1.6 1.65 1.7 1.75 1.8 1.85 1.9 1.95 2 2.05 2.1 2.15 2.2 2.25 2.3 2.35 2.4 2.45 2.5 2.55 2.6 2.65 2.7 2.75 2.8 2.85 2.9 2.95 3 3.05 3.1 3.15 3.2 3.25 3.3 3.35 3.4 3.45 3.5 3.55 3.6 3.65 3.7 3.75 3.8 3.85 3.9 3.95 4 
seq_id_string  
spoiling 1 
td 0.005 
tp 0.05 

# Format of blocks:
#  #  D RF  GX  GY  GZ ADC EXT
[BLOCKS]
  1  1  0   0   0   0  0  0
  2  0  1   0   0   0  0  0
  3  2  0   0   0   0  0  0
  4  0  2   0   0   0  0  0
  5  0  0   1   1   1  0  0
  6  0  0   0   0   0  1  0
  7  1  0   0   0   0  0  0
  8  0  3   0   0   0  0  0
  9  2  0   0   0   0  0  0
 10  0  4   0   0   0  0  0
 11  0  0   1   1   1  0  0
 12  0  0   0   0   0  1  0
 13  1  0   0   0   0  0  0
 14  0  5   0   0   0  0  0
 15  2  0   0   0   0  0  0
 16  0  6   0   0   0  0  0
 17  0  0   1   1   1  0  0
 18  0  0   0   0   0  1  0
 19  1  0   0   0   0  0  0
 20  0  7   0   0   0  0  0
 21  2  0   0   0   0  0  0
 22  0  8   0   0   0  0  0
 23  0  0   1   1   1  0  0
 24  0  0   0   0   0  1  0
 25  1  0   0   0   0  0  0
 26  0  9   0   0   0  0  0
 27  2  0   0   0   0  0  0
 28  0 10   0   0   0  0  0
 29  0  0   1   1   1  0  0
 30  0  0   0   0   0  1  0
 31  1  0   0   0   0  0  0
 32  0 11   0   0   0  0  0
 33  2  0   0   0   0  0  0
 34  0 12   0   0   0  0  0
 35  0  0   1   1   1  0  0
 36  0  0   0   0   0  1  0
 37  1  0   0   0   0  0  0
 38  0 13   0   0   0  0  0
 39  2  0   0   0   0  0  0
 40  0 14   0   0   0  0  0
 41  0  0   1   1   1  0  0
 42  0  0   0   0   0  1  0
 43  1  0   0   0   0  0  0
 44  0 15   0   0   0  0  0
 45  2  0   0   0   0  0  0
 46  0 16   0   0   0  0  0
 47  0  0   1   1   1  0  0
 48  0  0   0   0   0  1  0
 49  1  0   0   0   0  0  0
 50  0 17   0   0   0  0  0
 51  2  0   0   0   0  0  0
 52  0 18   0   0   0  0  0
 53  0  0   1   1   1  0  0
 54  0  0   0   0   0  1  0
 55  1  0   0   0   0  0  0
 56  0 19   0   0   0  0  0
 57  2  0   0   0   0  0  0
 58  0 20   0   0   0  0  0
 59  0  0   1   1   1  0  0
 60  0  0   0   0   0  1  0
 61  1  0   0   0   0  0  0
 62  0 21   0   0   0  0  0
 63  2  0   0   0   0  0  0
 64  0 22   0   0   0  0  0
 65  0  0   1   1   1  0  0
 66  0  0   0   0   0  1  0
 67  1  0   0   0   0  0  0
 68  0 23   0   0   0  0  0
 69  2  0   0   0   0  0  0
 70  0 24   0   0   0  0  0
 71  0  0   1   1   1  0  0
 72  0  0   0   0   0  1  0
 73  1  0   0   0   0  0  0
 74  0 25   0   0   0  0  0
 75  2  0   0   0   0  0  0
 76  0 26   0   0   0  0  0
 77  0  0   1   1   1  0  0
 78  0  0   0   0   0  1  0
 79  1  0   0   0   0  0  0
 80  0 27   0   0   0  0  0
 81  2  0   0   0   0  0  0
 82  0 28   0   0   0  0  0
 83  0  0   1   1   1  0  0
 84  0  0   0   0   0  1  0
 85  1  0   0   0   0  0  0
 86  0 29   0   0   0  0  0
 87  2  0   0   0   0  0  0
 88  0 30   0   0   0  0  0
 89  0  0   1   1   1  0  0
 90  0  0   0   0   0  1  0
 91  1  0   0   0   0  0  0
 92  0 31   0   0   0  0  0
 93  2  0   0   0   0  0  0
 94  0 32   0   0   0  0  0
 95  0  0   1   1   1  0  0
 96  0  0   0   0   0  1  0
 97  1  0   0   0   0  0  0
 98  0 33   0   0   0  0  0
 99  2  0   0   0   0  0  0
100  0 34   0   0   0  0  0
101  0  0   1   1   1  0  0
102  0  0   0   0   0  1  0
103  1  0   0   0   0  0  0
104  0 35   0   0   0  0  0
105  2  0   0   0   0  0  0
106  0 36   0   0   0  0  0
107  0  0   1   1   1  0  0
108  0  0   0   0   0  1  0
109  1  0   0   0   0  0  0
110  0 37   0   0   0  0  0
111  2  0   0   0   0  0  0
112  0 38   0   0   0  0  0
113  0  0   1   1   1  0  0
114  0  0   0   0   0  1  0
115  1  0   0   0   0  0  0
116  0 39   0   0   0  0  0
117  2  0   0   0   0  0  0
118  0 40   0   0   0  0  0
119  0  0   1   1   1  0  0
120  0  0   0   0   0  1  0
121  1  0   0   0   0  0  0
122  0 41   0   0   0  0  0
123  2  0   0   0   0  0  0
124  0 42   0   0   0  0  0
125  0  0   1   1   1  0  0
126  0  0   0   0   0  1  0
127  1  0   0   0   0  0  0
128  0 43   0   0   0  0  0
129  2  0   0   0   0  0  0
130  0 44   0   0   0  0  0
131  0  0   1   1   1  0  0
132  0  0   0   0   0  1  0
133  1  0   0   0   0  0  0
134  0 45   0   0   0  0  0
135  2  0   0   0   0  0  0
136  0 46   0   0   0  0  0
137  0  0   1   1   1  0  0
138  0  0   0   0   0  1  0
139  1  0   0   0   0  0  0
140  0 47   0   0   0  0  0
141  2  0   0   0   0  0  0
142  0 48   0   0   0  0  0
143  0  0   1   1   1  0  0
144  0  0   0   0   0  1  0
145  1  0   0   0   0  0  0
146  0 49   0   0   0  0  0
147  2  0   0   0   0  0  0
148  0 50   0   0   0  0  0
149  0  0   1   1   1  0  0
150  0  0   0   0   0  1  0
151  1  0   0   0   0  0  0
152  0 51   0   0   0  0  0
153  2  0   0   0   0  0  0
154  0 52   0   0   0  0  0
155  0  0   1   1   1  0  0
156  0  0   0   0   0  1  0
157  1  0   0   0   0  0  0
158  0 53   0   0   0  0  0
159  2  0   0   0   0  0  0
160  0 54   0   0   0  0  0
161  0  0   1   1   1  0  0
162  0  0   0   0   0  1  0
163  1  0   0   0   0  0  0
164  0 55   0   0   0  0  0
165  2  0   0   0   0  0  0
166  0 56   0   0   0  0  0
167  0  0   1   1   1  0  0
168  0  0   0   0   0  1  0
169  1  0   0   0   0  0  0
170  0 57   0   0   0  0  0
171  2  0   0   0   0  0  0
172  0 58   0   0   0  0  0
173  0  0   1   1   1  0  0
174  0  0   0   0   0  1  0
175  1  0   0   0   0  0  0
176  0 59   0   0   0  0  0
177  2  0   0   0   0  0  0
178  0 60   0   0   0  0  0
179  0  0   1   1   1  0  0
180  0  0   0   0   0  1  0
181  1  0   0   0   0  0  0
182  0 61   0   0   0  0  0
183  2  0   0   0   0  0  0
184  0 62   0   0   0  0  0
185  0  0   1   1   1  0  0
186  0  0   0   0   0  1  0
187  1  0   0   0   0  0  0
188  0 63   0   0   0  0  0
189  2  0   0   0   0  0  0
190  0 64   0   0   0  0  0
191  0  0   1   1   1  0  0
192  0  0   0   0   0  1  0
193  1  0   0   0   0  0  0
194  0 65   0   0   0  0  0
195  2  0   0   0   0  0  0
196  0 66   0   0   0  0  0
197  0  0   1   1   1  0  0
198  0  0   0   0   0  1  0
199  1  0   0   0   0  0  0
200  0 67   0   0   0  0  0
201  2  0   0   0   0  0  0
202  0 68   0   0   0  0  0
203  0  0   1   1   1  0  0
204  0  0   0   0   0  1  0
205  1  0   0   0   0  0  0
206  0 69   0   0   0  0  0
207  2  0   0   0   0  0  0
208  0 70   0   0   0  0  0
209  0  0   1   1   1  0  0
210  0  0   0   0   0  1  0
211  1  0   0   0   0  0  0
212  0 71   0   0   0  0  0
213  2  0   0   0   0  0  0
214  0 72   0   0   0  0  0
215  0  0   1   1   1  0  0
216  0  0   0   0   0  1  0
217  1  0   0   0   0  0  0
218  0 73   0   0   0  0  0
219  2  0   0   0   0  0  0
220  0 74   0   0   0  0  0
221  0  0   1   1   1  0  0
222  0  0   0   0   0  1  0
223  1  0   0   0   0  0  0
224  0 75   0   0   0  0  0
225  2  0   0   0   0  0  0
226  0 76   0   0   0  0  0
227  0  0   1   1   1  0  0
228  0  0   0   0   0  1  0
229  1  0   0   0   0  0  0
230  0 77   0   0   0  0  0
231  2  0   0   0   0  0  0
232  0 78   0   0   0  0  0
233  0  0   1   1   1  0  0
234  0  0   0   0   0  1  0
235  1  0   0   0   0  0  0
236  0 79   0   0   0  0  0
237  2  0   0   0   0  0  0
238  0 80   0   0   0  0  0
239  0  0   1   1   1  0  0
240  0  0   0   0   0  1  0
241  1  0   0   0   0  0  0
242  0 81   0   0   0  0  0
243  2  0   0   0   0  0  0
244  0 82   0   0   0  0  0
245  0  0   1   1   1  0  0
246  0  0   0   0   0  1  0
247  1  0   0   0   0  0  0
248  0 83   0   0   0  0  0
249  2  0   0   0   0  0  0
250  0 84   0   0   0  0  0
251  0  0   1   1   1  0  0
252  0  0   0   0   0  1  0
253  1  0   0   0   0  0  0
254  0 85   0   0   0  0  0
255  2  0   0   0   0  0  0
256  0 86   0   0   0  0  0
257  0  0   1   1   1  0  0
258  0  0   0   0   0  1  0
259  1  0   0   0   0  0  0
260  0 87   0   0   0  0  0
261  2  0   0   0   0  0  0
262  0 88   0   0   0  0  0
263  0  0   1   1   1  0  0
264  0  0   0   0   0  1  0
265  1  0   0   0   0  0  0
266  0 89   0   0   0  0  0
267  2  0   0   0   0  0  0
268  0 90   0   0   0  0  0
269  0  0   1   1   1  0  0
270  0  0   0   0   0  1  0
271  1  0   0   0   0  0  0
272  0 91   0   0   0  0  0
273  2  0   0   0   0  0  0
274  0 92   0   0   0  0  0
275  0  0   1   1   1  0  0
276  0  0   0   0   0  1  0
277  1  0   0   0   0  0  0
278  0 93   0   0   0  0  0
279  2  0   0   0   0  0  0
280  0 94   0   0   0  0  0
281  0  0   1   1   1  0  0
282  0  0   0   0   0  1  0
283  1  0   0   0   0  0  0
284  0 95   0   0   0  0  0
285  2  0   0   0   0  0  0
286  0 96   0   0   0  0  0
287  0  0   1   1   1  0  0
288  0  0   0   0   0  1  0
289  1  0   0   0   0  0  0
290  0 97   0   0   0  0  0
291  2  0   0   0   0  0  0
292  0 98   0   0   0  0  0
293  0  0   1   1   1  0  0
294  0  0   0   0   0  1  0
295  1  0   0   0   0  0  0
296  0 99   0   0   0  0  0
297  2  0   0   0   0  0  0
298  0 100   0   0   0  0  0
299  0  0   1   1   1  0  0
300  0  0   0   0   0  1  0
301  1  0   0   0   0  0  0
302  0 101   0   0   0  0  0
303  2  0   0   0   0  0  0
304  0 102   0   0   0  0  0
305  0  0   1   1   1  0  0
306  0  0   0   0   0  1  0
307  1  0   0   0   0  0  0
308  0 103   0   0   0  0  0
309  2  0   0   0   0  0  0
310  0 104   0   0   0  0  0
311  0  0   1   1   1  0  0
[RF]
1      127.751 1 2 100 -36977.6 0
2      127.751 1 2 100 -36977.6 0.750841
3      127.751 1 2 100 -493.035 0
4      127.751 1 2 100 -493.035 2.18818
5      127.751 1 2 100 -486.872 0
6      127.751 1 2 100 -486.872 4.12433
7      127.751 1 2 100 -480.709 0
8      127.751 1 2 100 -480.709 6.06047
9      127.751 1 2 100 -474.546 0
10      127.751 1 2 100 -474.546 1.71343
11      127.751 1 2 100 -468.383 0
12      127.751 1 2 100 -468.383 3.64957
13      127.751 1 2 100 -462.22 0
14      127.751 1 2 100 -462.22 5.58571
15      127.751 1 2 100 -456.057 0
16      127.751 1 2 100 -456.057 1.23867
17      127.751 1 2 100 -449.894 0
18      127.751 1 2 100 -449.894 3.17481
19      127.751 1 2 100 -443.731 0
20      127.751 1 2 100 -443.731 5.11096
21      127.751 1 2 100 -437.568 0
22      127.751 1 2 100 -437.568 0.763914
23      127.751 1 2 100 -431.405 0
24      127.751 1 2 100 -431.405 2.70006
25      127.751 1 2 100 -425.243 0
26      127.751 1 2 100 -425.243 4.6362
27      127.751 1 2 100 -419.08 0
28      127.751 1 2 100 -419.08 0.289158
29      127.751 1 2 100 -412.917 0
30      127.751 1 2 100 -412.917 2.2253
31      127.751 1 2 100 -406.754 0
32      127.751 1 2 100 -406.754 4.16144
33      127.751 1 2 100 -400.591 0
34      127.751 1 2 100 -400.591 6.09759
35      127.751 1 2 100 -394.428 0
36      127.751 1 2 100 -394.428 1.75055
37      127.751 1 2 100 -388.265 0
38      127.751 1 2 100 -388.265 3.68669
39      127.751 1 2 100 -382.102 0
40      127.751 1 2 100 -382.102 5.62283
41      127.751 1 2 100 -375.939 0
42      127.751 1 2 100 -375.939 1.27579
43      127.751 1 2 100 -369.776 0
44      127.751 1 2 100 -369.776 3.21193
45      127.751 1 2 100 -363.613 0
46      127.751 1 2 100 -363.613 5.14808
47      127.751 1 2 100 -357.45 0
48      127.751 1 2 100 -357.45 0.801034
49      127.751 1 2 100 -351.287 0
50      127.751 1 2 100 -351.287 2.73718
51      127.751 1 2 100 -345.124 0
52      127.751 1 2 100 -345.124 4.67332
53      127.751 1 2 100 -338.961 0
54      127.751 1 2 100 -338.961 0.326278
55      127.751 1 2 100 -332.798 0
56      127.751 1 2 100 -332.798 2.26242
57      127.751 1 2 100 -326.636 0
58      127.751 1 2 100 -326.636 4.19856
59      127.751 1 2 100 -320.473 0
60      127.751 1 2 100 -320.473 6.13471
61      127.751 1 2 100 -314.31 0
62      127.751 1 2 100 -314.31 1.78767
63      127.751 1 2 100 -308.147 0
64      127.751 1 2 100 -308.147 3.72381
65      127.751 1 2 100 -301.984 0
66      127.751 1 2 100 -301.984 5.65995
67      127.751 1 2 100 -295.821 0
68      127.751 1 2 100 -295.821 1.31291
69      127.751 1 2 100 -289.658 0
70      127.751 1 2 100 -289.658 3.24905
71      127.751 1 2 100 -283.495 0
72      127.751 1 2 100 -283.495 5.1852
73      127.751 1 2 100 -277.332 0
74      127.751 1 2 100 -277.332 0.838153
75      127.751 1 2 100 -271.169 0
76      127.751 1 2 100 -271.169 2.7743
77      127.751 1 2 100 -265.006 0
78      127.751 1 2 100 -265.006 4.71044
79      127.751 1 2 100 -258.843 0
80      127.751 1 2 100 -258.843 0.363397
81      127.751 1 2 100 -252.68 0
82      127.751 1 2 100 -252.68 2.29954
83      127.751 1 2 100 -246.517 0
84      127.751 1 2 100 -246.517 4.23568
85      127.751 1 2 100 -240.354 0
86      127.751 1 2 100 -240.354 6.17183
87      127.751 1 2 100 -234.192 0
88      127.751 1 2 100 -234.192 1.82478
89      127.751 1 2 100 -228.029 0
90      127.751 1 2 100 -228.029 3.76093
91      127.751 1 2 100 -221.866 0
92      127.751 1 2 100 -221.866 5.69707
93      127.751 1 2 100 -215.703 0
94      127.751 1 2 100 -215.703 1.35003
95      127.751 1 2 100 -209.54 0
96      127.751 1 2 100 -209.54 3.28617
97      127.751 1 2 100 -203.377 0
98      127.751 1 2 100 -203.377 5.22232
99      127.751 1 2 100 -197.214 0
100      127.751 1 2 100 -197.214 0.875273
101      127.751 1 2 100 -191.051 0
102      127.751 1 2 100 -191.051 2.81142
103      127.751 1 2 100 -184.888 0
104      127.751 1 2 100 -184.888 4.74756
105      127.751 1 2 100 -178.725 0
106      127.751 1 2 100 -178.725 0.400517
107      127.751 1 2 100 -172.562 0
108      127.751 1 2 100 -172.562 2.33666
109      127.751 1 2 100 -166.399 0
110      127.751 1 2 100 -166.399 4.2728
111      127.751 1 2 100 -160.236 0
112      127.751 1 2 100 -160.236 6.20895
113      127.751 1 2 100 -154.073 0
114      127.751 1 2 100 -154.073 1.8619
115      127.751 1 2 100 -147.91 0
116      127.751 1 2 100 -147.91 3.79805
117      127.751 1 2 100 -141.748 0
118      127.751 1 2 100 -141.748 5.73419
119      127.751 1 2 100 -135.585 0
120      127.751 1 2 100 -135.585 1.38715
121      127.751 1 2 100 -129.422 0
122      127.751 1 2 100 -129.422 3.32329
123      127.751 1 2 100 -123.259 0
124      127.751 1 2 100 -123.259 5.25943
125      127.751 1 2 100 -117.096 0
126      127.751 1 2 100 -117.096 0.912392
127      127.751 1 2 100 -110.933 0
128      127.751 1 2 100 -110.933 2.84854
129      127.751 1 2 100 -104.77 0
130      127.751 1 2 100 -104.77 4.78468
131      127.751 1 2 100 -98.607 0
132      127.751 1 2 100 -98.607 0.437636
133      127.751 1 2 100 -92.444 0
134      127.751 1 2 100 -92.444 2.37378
135      127.751 1 2 100 -86.2811 0
136      127.751 1 2 100 -86.2811 4.30992
137      127.751 1 2 100 -80.1182 0
138      127.751 1 2 100 -80.1182 6.24607
139      127.751 1 2 100 -73.9552 0
140      127.751 1 2 100 -73.9552 1.89902
141      127.751 1 2 100 -67.7923 0
142      127.751 1 2 100 -67.7923 3.83517
143      127.751 1 2 100 -61.6294 0
144      127.751 1 2 100 -61.6294 5.77131
145      127.751 1 2 100 -55.4664 0
146      127.751 1 2 100 -55.4664 1.42427
147      127.751 1 2 100 -49.3035 0
148      127.751 1 2 100 -49.3035 3.36041
149      127.751 1 2 100 -43.1405 0
150      127.751 1 2 100 -43.1405 5.29655
151      127.751 1 2 100 -36.9776 0
152      127.751 1 2 100 -36.9776 0.949512
153      127.751 1 2 100 -30.8147 0
154      127.751 1 2 100 -30.8147 2.88565
155      127.751 1 2 100 -24.6517 0
156      127.751 1 2 100 -24.6517 4.8218
157      127.751 1 2 100 -18.4888 0
158      127.751 1 2 100 -18.4888 0.474756
159      127.751 1 2 100 -12.3259 0
160      127.751 1 2 100 -12.3259 2.4109
161      127.751 1 2 100 -6.16293 0
162      127.751 1 2 100 -6.16293 4.34704
163      127.751 1 2 100 0 0
164      127.751 1 2 100 6.16293 0
165      127.751 1 2 100 6.16293 1.93614
166      127.751 1 2 100 12.3259 0
167      127.751 1 2 100 12.3259 3.87229
168      127.751 1 2 100 18.4888 0
169      127.751 1 2 100 18.4888 5.80843
170      127.751 1 2 100 24.6517 0
171      127.751 1 2 100 24.6517 1.46139
172      127.751 1 2 100 30.8147 0
173      127.751 1 2 100 30.8147 3.39753
174      127.751 1 2 100 36.9776 0
175      127.751 1 2 100 36.9776 5.33367
176      127.751 1 2 100 43.1405 0
177      127.751 1 2 100 43.1405 0.986631
178      127.751 1 2 100 49.3035 0
179      127.751 1 2 100 49.3035 2.92277
180      127.751 1 2 100 55.4664 0
181      127.751 1 2 100 55.4664 4.85892
182      127.751 1 2 100 61.6294 0
183      127.751 1 2 100 61.6294 0.511875
184      127.751 1 2 100 67.7923 0
185      127.751 1 2 100 67.7923 2.44802
186      127.751 1 2 100 73.9552 0
187      127.751 1 2 100 73.9552 4.38416
188      127.751 1 2 100 80.1182 0
189      127.751 1 2 100 80.1182 0.0371195
190      127.751 1 2 100 86.2811 0
191      127.751 1 2 100 86.2811 1.97326
192      127.751 1 2 100 92.444 0
193      127.751 1 2 100 92.444 3.90941
194      127.751 1 2 100 98.607 0
195      127.751 1 2 100 98.607 5.84555
196      127.751 1 2 100 104.77 0
197      127.751 1 2 100 104.77 1.49851
198      127.751 1 2 100 110.933 0
199      127.751 1 2 100 110.933 3.43465
200      127.751 1 2 100 117.096 0
201      127.751 1 2 100 117.096 5.37079
202      127.751 1 2 100 123.259 0
203      127.751 1 2 100 123.259 1.02375
204      127.751 1 2 100 129.422 0
205      127.751 1 2 100 129.422 2.95989
206      127.751 1 2 100 135.585 0
207      127.751 1 2 100 135.585 4.89604
208      127.751 1 2 100 141.748 0
209      127.751 1 2 100 141.748 0.548995
210      127.751 1 2 100 147.91 0
211      127.751 1 2 100 147.91 2.48514
212      127.751 1 2 100 154.073 0
213      127.751 1 2 100 154.073 4.42128
214      127.751 1 2 100 160.236 0
215      127.751 1 2 100 160.236 0.074239
216      127.751 1 2 100 166.399 0
217      127.751 1 2 100 166.399 2.01038
218      127.751 1 2 100 172.562 0
219      127.751 1 2 100 172.562 3.94653
220      127.751 1 2 100 178.725 0
221      127.751 1 2 100 178.725 5.88267
222      127.751 1 2 100 184.888 0
223      127.751 1 2 100 184.888 1.53563
224      127.751 1 2 100 191.051 0
225      127.751 1 2 100 191.051 3.47177
226      127.751 1 2 100 197.214 0
227      127.751 1 2 100 197.214 5.40791
228      127.751 1 2 100 203.377 0
229      127.751 1 2 100 203.377 1.06087
230      127.751 1 2 100 209.54 0
231      127.751 1 2 100 209.54 2.99701
232      127.751 1 2 100 215.703 0
233      127.751 1 2 100 215.703 4.93316
234      127.751 1 2 100 221.866 0
235      127.751 1 2 100 221.866 0.586114
236      127.751 1 2 100 228.029 0
237      127.751 1 2 100 228.029 2.52226
238      127.751 1 2 100 234.192 0
239      127.751 1 2 100 234.192 4.4584
240      127.751 1 2 100 240.354 0
241      127.751 1 2 100 240.354 0.111358
242      127.751 1 2 100 246.517 0
243      127.751 1 2 100 246.517 2.0475
244      127.751 1 2 100 252.68 0
245      127.751 1 2 100 252.68 3.98364
246      127.751 1 2 100 258.843 0
247      127.751 1 2 100 258.843 5.91979
248      127.751 1 2 100 265.006 0
249      127.751 1 2 100 265.006 1.57275
250      127.751 1 2 100 271.169 0
251      127.751 1 2 100 271.169 3.50889
252      127.751 1 2 100 277.332 0
253      127.751 1 2 100 277.332 5.44503
254      127.751 1 2 100 283.495 0
255      127.751 1 2 100 283.495 1.09799
256      127.751 1 2 100 289.658 0
257      127.751 1 2 100 289.658 3.03413
258      127.751 1 2 100 295.821 0
259      127.751 1 2 100 295.821 4.97028
260      127.751 1 2 100 301.984 0
261      127.751 1 2 100 301.984 0.623234
262      127.751 1 2 100 308.147 0
263      127.751 1 2 100 308.147 2.55938
264      127.751 1 2 100 314.31 0
265      127.751 1 2 100 314.31 4.49552
266      127.751 1 2 100 320.473 0
267      127.751 1 2 100 320.473 0.148478
268      127.751 1 2 100 326.636 0
269      127.751 1 2 100 326.636 2.08462
270      127.751 1 2 100 332.798 0
271      127.751 1 2 100 332.798 4.02076
272      127.751 1 2 100 338.961 0
273      127.751 1 2 100 338.961 5.95691
274      127.751 1 2 100 345.124 0
275      127.751 1 2 100 345.124 1.60987
276      127.751 1 2 100 351.287 0
277      127.751 1 2 100 351.287 3.54601
278      127.751 1 2 100 357.45 0
279      127.751 1 2 100 357.45 5.48215
280      127.751 1 2 100 363.613 0
281      127.751 1 2 100 363.613 1.13511
282      127.751 1 2 100 369.776 0
283      127.751 1 2 100 369.776 3.07125
284      127.751 1 2 100 375.939 0
285      127.751 1 2 100 375.939 5.0074
286      127.751 1 2 100 382.102 0
287      127.751 1 2 100 382.102 0.660353
288      127.751 1 2 100 388.265 0
289      127.751 1 2 100 388.265 2.5965
290      127.751 1 2 100 394.428 0
291      127.751 1 2 100 394.428 4.53264
292      127.751 1 2 100 400.591 0
293      127.751 1 2 100 400.591 0.185597
294      127.751 1 2 100 406.754 0
295      127.751 1 2 100 406.754 2.12174
296      127.751 1 2 100 412.917 0
297      127.751 1 2 100 412.917 4.05788
298      127.751 1 2 100 419.08 0
299      127.751 1 2 100 419.08 5.99403
300      127.751 1 2 100 425.243 0
301      127.751 1 2 100 425.243 1.64698
302      127.751 1 2 100 431.405 0
303      127.751 1 2 100 431.405 3.58313
304      127.751 1 2 100 437.568 0
305      127.751 1 2 100 437.568 5.51927
306      127.751 1 2 100 443.731 0
307      127.751 1 2 100 443.731 1.17223
308      127.751 1 2 100 449.894 0
309      127.751 1 2 100 449.894 3.10837
310      127.751 1 2 100 456.057 0
311      127.751 1 2 100 456.057 5.04452
312      127.751 1 2 100 462.22 0
313      127.751 1 2 100 462.22 0.697473
314      127.751 1 2 100 468.383 0
315      127.751 1 2 100 468.383 2.63362
316      127.751 1 2 100 474.546 0
317      127.751 1 2 100 474.546 4.56976
318      127.751 1 2 100 480.709 0
319      127.751 1 2 100 480.709 0.222717
320      127.751 1 2 100 486.872 0
321      127.751 1 2 100 486.872 2.15886
322      127.751 1 2 100 493.035 0
323      127.751 1 2 100 493.035 4.095

# Format of trapezoid gradients:
# id amplitude rise flat fall delay
# ..      Hz/m   us   us   us    us
[TRAP]
 1  1.36244e+06 1000 5500 1000   0

# Format of ADC events:
# id num dwell delay freq phase
# ..  ..    ns    us   Hz   rad
[ADC]
1 1 1000000 0 0 0

# Format of delays:
# id delay (us)
[DELAYS]
1 3500000
2 5000

# Sequence Shapes
[SHAPES]

shape_id 1
num_samples 50030
2.8e-05
2.8e-05
4
2.81e-05
2.8e-05
2.8e-05
2
2.81e-05
2.8e-05
2.8e-05
0
2.81e-05
2.8e-05
2.8e-05
0
2.81e-05
2.8e-05
2.8e-05
0
2.81e-05
2.8e-05
2.81e-05
2.8e-05
2.81e-05
2.81e-05
0
2.8e-05
2.81e-05
2.8e-05
2.81e-05
2.81e-05
0
2.8e-05
2.81e-05
2.81e-05
2
2.8e-05
2.81e-05
2.81e-05
14
2.82e-05
2.81e-05
2.81e-05
1
2.82e-05
2.81e-05
2.81e-05
0
2.82e-05
2.81e-05
2.81e-05
0
2.82e-05
2.81e-05
2.82e-05
2.81e-05
2.82e-05
2.81e-05
2.82e-05
2.82e-05
0
2.81e-05
2.82e-05
2.81e-05
2.82e-05
2.82e-05
0
2.81e-05
2.82e-05
2.82e-05
2
2.81e-05
2.82e-05
2.82e-05
12
2.83e-05
2.82e-05
2.82e-05
2
2.83e-05
2.82e-05
2.82e-05
0
2.83e-05
2.82e-05
2.82e-05
0
2.83e-05
2.82e-05
2.83e-05
2.82e-05
2.83e-05
2.82e-05
2.83e-05
2.82e-05
2.83e-05
2.83e-05
0
2.82e-05
2.83e-05
2.83e-05
0
2.82e-05
2.83e-05
2.83e-05
1
2.82e-05
2.83e-05
2.83e-05
15
2.84e-05
2.83e-05
2.83e-05
1
2.84e-05
2.83e-05
2.83e-05
0
2.84e-05
2.83e-05
2.83e-05
0
2.84e-05
2.83e-05
2.84e-05
2.83e-05
2.84e-05
2.83e-05
2.84e-05
2.83e-05
2.84e-05
2.84e-05
0
2.83e-05
2.84e-05
2.84e-05
0
2.83e-05
2.84e-05
2.84e-05
2
2.83e-05
2.84e-05
2.84e-05
12
2.85e-05
2.84e-05
2.84e-05
1
2.85e-05
2.84e-05
2.84e-05
0
2.85e-05
2.84e-05
2.84e-05
0
2.85e-05
2.84e-05
2.85e-05
2.84e-05
2.84e-05
0
2.85e-05
2.85e-05
0
2.84e-05
2.85e-05
2.84e-05
2.85e-05
2.85e-05
0
2.84e-05
2.85e-05
2.85e-05
0
2.84e-05
2.85e-05
2.85e-05
2
2.84e-05
2.85e-05
2.85e-05
10
2.86e-05
2.85e-05
2.85e-05
2
2.86e-05
2.85e-05
2.85e-05
0
2.86e-05
2.85e-05
2.85e-05
0
2.86e-05
2.85e-05
2.86e-05
2.85e-05
2.86e-05
2.85e-05
2.86e-05
2.85e-05
2.86e-05
2.85e-05
2.86e-05
2.86e-05
0
2.85e-05
2.86e-05
2.86e-05
0
2.85e-05
2.86e-05
2.86e-05
2
2.85e-05
2.86e-05
2.86e-05
10
2.87e-05
2.86e-05
2.86e-05
2
2.87e-05
2.86e-05
2.86e-05
0
2.87e-05
2.86e-05
2.86e-05
0
2.87e-05
2.86e-05
2.86e-05
0
2.87e-05
2.86e-05
2.87e-05
2.86e-05
2.87e-05
2.87e-05
0
2.86e-05
2.87e-05
2.86e-05
2.87e-05
2.87e-05
1
2.86e-05
2.87e-05
2.87e-05
1
2.86e-05
2.87e-05
2.87e-05
12
2.88e-05
2.87e-05
2.87e-05
1
2.88e-05
2.87e-05
2.87e-05
1
2.88e-05
2.87e-05
2.88e-05
2.87e-05
2.87e-05
0
2.88e-05
2.87e-05
2.88e-05
2.87e-05
2.88e-05
2.88e-05
0
2.87e-05
2.88e-05
2.87e-05
2.88e-05
2.88e-05
0
2.87e-05
2.88e-05
2.88e-05
2
2.87e-05
2.88e-05
2.88e-05
12
2.89e-05
2.88e-05
2.88e-05
2
2.89e-05
2.88e-05
2.88e-05
0
2.89e-05
2.88e-05
2.89e-05
2.88e-05
2.88e-05
0
2.89e-05
2.88e-05
2.89e-05
2.88e-05
2.89e-05
2.89e-05
0
2.88e-05
2.89e-05
2.88e-05
2.89e-05
2.89e-05
1
2.88e-05
2.89e-05
2.89e-05
1
2.88e-05
2.89e-05
2.89e-05
11
2.9e-05
2.89e-05
2.89e-05
2
2.9e-05
2.89e-05
2.89e-05
0
2.9e-05
2.89e-05
2.89e-05
0
2.9e-05
2.89e-05
2.9e-05
2.89e-05
2.9e-05
2.89e-05
2.9e-05
2.89e-05
2.9e-05
2.89e-05
2.9e-05
2.9e-05
0
2.89e-05
2.9e-05
2.9e-05
1
2.89e-05
2.9e-05
2.9e-05
3
2.89e-05
2.9e-05
2.9e-05
5
2.91e-05
2.9e-05
2.9e-05
3
2.91e-05
2.9e-05
2.9e-05
1
2.91e-05
2.9e-05
2.9e-05
0
2.91e-05
2.9e-05
2.91e-05
2.9e-05
2.91e-05
2.9e-05
2.91e-05
2.9e-05
2.91e-05
2.9e-05
2.91e-05
2.91e-05
0
2.9e-05
2.91e-05
2.91e-05
0
2.9e-05
2.91e-05
2.91e-05
2
2.9e-05
2.91e-05
2.91e-05
10
2.92e-05
2.91e-05
2.91e-05
2
2.92e-05
2.91e-05
2.91e-05
0
2.92e-05
2.91e-05
2.91e-05
0
2.92e-05
2.91e-05
2.92e-05
2.91e-05
2.91e-05
0
2.92e-05
2.92e-05
0
2.91e-05
2.92e-05
2.91e-05
2.92e-05
2.92e-05
0
2.91e-05
2.92e-05
2.92e-05
0
2.91e-05
2.92e-05
2.92e-05
2
2.91e-05
2.92e-05
2.92e-05
9
2.93e-05
2.92e-05
2.92e-05
2
2.93e-05
2.92e-05
2.92e-05
1
2.93e-05
2.92e-05
2.93e-05
2.92e-05
2.92e-05
0
2.93e-05
2.92e-05
2.93e-05
2.92e-05
2.93e-05
2.93e-05
0
2.92e-05
2.93e-05
2.92e-05
2.93e-05
2.93e-05
0
2.92e-05
2.93e-05
2.93e-05
2
2.92e-05
2.93e-05
2.93e-05
12
2.94e-05
2.93e-05
2.93e-05
2
2.94e-05
2.93e-05
2.93e-05
0
2.94e-05
2.93e-05
2.93e-05
0
2.94e-05
2.93e-05
2.94e-05
2.93e-05
2.94e-05
2.93e-05
2.94e-05
2.94e-05
0
2.93e-05
2.94e-05
2.93e-05
2.94e-05
2.94e-05
1
2.93e-05
2.94e-05
2.94e-05
2
2.93e-05
2.94e-05
2.94e-05
9
2.95e-05
2.94e-05
2.94e-05
2
2.95e-05
2.94e-05
2.94e-05
0
2.95e-05
2.94e-05
2.94e-05
0
2.95e-05
2.94e-05
2.95e-05
2.94e-05
2.94e-05
0
2.95e-05
2.95e-05
0
2.94e-05
2.95e-05
2.94e-05
2.95e-05
2.95e-05
0
2.94e-05
2.95e-05
2.95e-05
0
2.94e-05
2.95e-05
2.95e-05
2
2.94e-05
2.95e-05
2.95e-05
9
2.96e-05
2.95e-05
2.95e-05
2
2.96e-05
2.95e-05
2.95e-05
0
2.96e-05
2.95e-05
2.95e-05
0
2.96e-05
2.95e-05
2.95e-05
0
2.96e-05
2.95e-05
2.96e-05
2.95e-05
2.96e-05
2.96e-05
0
2.95e-05
2.96e-05
2.95e-05
2.96e-05
2.96e-05
1
2.95e-05
2.96e-05
2.96e-05
1
2.95e-05
2.96e-05
2.96e-05
11
2.97e-05
2.96e-05
2.96e-05
2
2.97e-05
2.96e-05
2.96e-05
0
2.97e-05
2.96e-05
2.96e-05
0
2.97e-05
2.96e-05
2.97e-05
2.96e-05
2.97e-05
2.96e-05
2.97e-05
2.96e-05
2.97e-05
2.97e-05
0
2.96e-05
2.97e-05
2.97e-05
0
2.96e-05
2.97e-05
2.97e-05
1
2.96e-05
2.97e-05
2.97e-05
13
2.98e-05
2.97e-05
2.97e-05
2
2.98e-05
2.97e-05
2.97e-05
0
2.98e-05
2.97e-05
2.98e-05
2.97e-05
2.98e-05
2.97e-05
2.98e-05
2.97e-05
2.98e-05
2.97e-05
2.98e-05
2.97e-05
2.98e-05
2.98e-05
0
2.97e-05
2.98e-05
2.98e-05
1
2.97e-05
2.98e-05
2.98e-05
15
2.99e-05
2.98e-05
2.98e-05
1
2.99e-05
2.98e-05
2.98e-05
0
2.99e-05
2.98e-05
2.98e-05
0
2.99e-05
2.98e-05
2.99e-05
2.98e-05
2.99e-05
2.98e-05
2.99e-05
2.99e-05
0
2.98e-05
2.99e-05
2.99e-05
0
2.98e-05
2.99e-05
2.99e-05
1
2.98e-05
2.99e-05
2.99e-05
4
2.98e-05
2.99e-05
2.99e-05
1
3e-05
2.99e-05
2.99e-05
4
3e-05
2.99e-05
2.99e-05
1
3e-05
2.99e-05
2.99e-05
0
3e-05
2.99e-05
2.99e-05
0
3e-05
2.99e-05
3e-05
2.99e-05
3e-05
2.99e-05
3e-05
3e-05
0
2.99e-05
3e-05
3e-05
0
2.99e-05
3e-05
3e-05
1
2.99e-05
3e-05
3e-05
15
3.01e-05
3e-05
3e-05
1
3.01e-05
3e-05
3e-05
0
3.01e-05
3e-05
3.01e-05
3e-05
3.01e-05
3e-05
3.01e-05
3e-05
3.01e-05
3e-05
3.01e-05
3.01e-05
0
3e-05
3.01e-05
3.01e-05
0
3e-05
3.01e-05
3.01e-05
2
3e-05
3.01e-05
3.01e-05
10
3.02e-05
3.01e-05
3.01e-05
2
3.02e-05
3.01e-05
3.01e-05
0
3.02e-05
3.01e-05
3.01e-05
0
3.02e-05
3.01e-05
3.02e-05
3.01e-05
3.02e-05
3.01e-05
3.02e-05
3.01e-05
3.02e-05
3.02e-05
0
3.01e-05
3.02e-05
3.02e-05
0
3.01e-05
3.02e-05
3.02e-05
1
3.01e-05
3.02e-05
3.02e-05
12
3.03e-05
3.02e-05
3.02e-05
2
3.03e-05
3.02e-05
3.02e-05
0
3.03e-05
3.02e-05
3.02e-05
0
3.03e-05
3.02e-05
3.03e-05
3.02e-05
3.03e-05
3.02e-05
3.03e-05
3.03e-05
0
3.02e-05
3.03e-05
3.02e-05
3.03e-05
3.03e-05
1
3.02e-05
3.03e-05
3.03e-05
2
3.02e-05
3.03e-05
3.03e-05
8
3.04e-05
3.03e-05
3.03e-05
2
3.04e-05
3.03e-05
3.03e-05
0
3.04e-05
3.03e-05
3.03e-05
0
3.04e-05
3.03e-05
3.03e-05
0
3.04e-05
3.03e-05
3.04e-05
3.03e-05
3.04e-05
3.04e-05
0
3.03e-05
3.04e-05
3.03e-05
3.04e-05
3.04e-05
1
3.03e-05
3.04e-05
3.04e-05
2
3.03e-05
3.04e-05
3.04e-05
9
3.05e-05
3.04e-05
3.04e-05
2
3.05e-05
3.04e-05
3.04e-05
0
3.05e-05
3.04e-05
3.04e-05
0
3.05e-05
3.04e-05
3.05e-05
3.04e-05
3.05e-05
3.04e-05
3.05e-05
3.04e-05
3.05e-05
3.05e-05
0
3.04e-05
3.05e-05
3.05e-05
0
3.04e-05
3.05e-05
3.05e-05
1
3.04e-05
3.05e-05
3.05e-05
13
3.06e-05
3.05e-05
3.05e-05
1
3.06e-05
3.05e-05
3.05e-05
1
3.06e-05
3.05e-05
3.06e-05
3.05e-05
3.06e-05
3.05e-05
3.06e-05
3.05e-05
3.06e-05
3.05e-05
3.06e-05
3.06e-05
0
3.05e-05
3.06e-05
3.06e-05
0
3.05e-05
3.06e-05
3.06e-05
2
3.05e-05
3.06e-05
3.06e-05
10
3.07e-05
3.06e-05
3.06e-05
1
3.07e-05
3.06e-05
3.06e-05
1
3.07e-05
3.06e-05
3.07e-05
3.06e-05
3.06e-05
0
3.07e-05
3.06e-05
3.07e-05
3.06e-05
3.07e-05
3.07e-05
0
3.06e-05
3.07e-05
3.07e-05
0
3.06e-05
3.07e-05
3.07e-05
0
3.06e-05
3.07e-05
3.07e-05
3
3.06e-05
3.07e-05
3.07e-05
6
3.08e-05
3.07e-05
3.07e-05
3
3.08e-05
3.07e-05
3.07e-05
0
3.08e-05
